25.0200 12.0
25.0400 9.0
25.0600 15.0
25.0800 17.0
25.1000 9.0
25.1200 8.0
25.1400 17.0
25.1600 4.0
25.1800 15.0
25.2000 5.0
25.2200 3.0
25.2400 9.0
25.2600 9.0
25.2800 8.0
25.3000 9.0
25.3200 12.0
25.3400 10.0
25.3600 6.0
25.3800 4.0
25.4000 7.0
25.4200 8.0
25.4400 10.0
25.4600 9.0
25.4800 4.0
25.5000 8.0
25.5200 8.0
25.5400 7.0
25.5600 8.0
25.5800 8.0
25.6000 4.0
25.6200 7.0
25.6400 11.0
25.6600 9.0
25.6800 6.0
25.7000 5.0
25.7200 8.0
25.7400 12.0
25.7600 5.0
25.7800 10.0
25.8000 7.0
25.8200 5.0
25.8400 3.0
25.8600 8.0
25.8800 6.0
25.9000 8.0
25.9200 8.0
25.9400 1.0
25.9600 5.0
25.9800 12.0
26.0000 12.0
26.0200 11.0
26.0400 10.0
26.0600 10.0
26.0800 10.0
26.1000 5.0
26.1200 5.0
26.1400 10.0
26.1600 10.0
26.1800 7.0
26.2000 8.0
26.2200 6.0
26.2400 6.0
26.2600 7.0
26.2800 6.0
26.3000 8.0
26.3200 6.0
26.3400 3.0
26.3600 7.0
26.3800 9.0
26.4000 8.0
26.4200 9.0
26.4400 8.0
26.4600 5.0
26.4800 10.0
26.5000 12.0
26.5200 8.0
26.5400 9.0
26.5600 9.0
26.5800 6.0
26.6000 9.0
26.6200 6.0
26.6400 8.0
26.6600 12.0
26.6800 9.0
26.7000 9.0
26.7200 6.0
26.7400 5.0
26.7600 8.0
26.7800 11.0
26.8000 6.0
26.8200 8.0
26.8400 9.0
26.8600 7.0
26.8800 7.0
26.9000 6.0
26.9200 6.0
26.9400 14.0
26.9600 8.0
26.9800 6.0
27.0000 3.0
27.0200 7.0
27.0400 13.0
27.0600 9.0
27.0800 10.0
27.1000 10.0
27.1200 3.0
27.1400 2.0
27.1600 7.0
27.1800 7.0
27.2000 7.0
27.2200 10.0
27.2400 11.0
27.2600 10.0
27.2800 12.0
27.3000 7.0
27.3200 11.0
27.3400 8.0
27.3600 6.0
27.3800 9.0
27.4000 7.0
27.4200 5.0
27.4400 5.0
27.4600 6.0
27.4800 11.0
27.5000 9.0
27.5200 10.0
27.5400 7.0
27.5600 8.0
27.5800 8.0
27.6000 5.0
27.6200 10.0
27.6400 8.0
27.6600 9.0
27.6800 6.0
27.7000 8.0
27.7200 4.0
27.7400 9.0
27.7600 6.0
27.7800 9.0
27.8000 8.0
27.8200 4.0
27.8400 9.0
27.8600 7.0
27.8800 6.0
27.9000 5.0
27.9200 12.0
27.9400 5.0
27.9600 8.0
27.9800 11.0
28.0000 7.0
28.0200 6.0
28.0400 3.0
28.0600 4.0
28.0800 10.0
28.1000 7.0
28.1200 8.0
28.1400 6.0
28.1600 6.0
28.1800 8.0
28.2000 4.0
28.2200 7.0
28.2400 4.0
28.2600 7.0
28.2800 5.0
28.3000 9.0
28.3200 8.0
28.3400 6.0
28.3600 5.0
28.3800 8.0
28.4000 6.0
28.4200 5.0
28.4400 13.0
28.4600 7.0
28.4800 6.0
28.5000 4.0
28.5200 8.0
28.5400 5.0
28.5600 8.0
28.5800 10.0
28.6000 6.0
28.6200 11.0
28.6400 6.0
28.6600 5.0
28.6800 5.0
28.7000 8.0
28.7200 5.0
28.7400 4.0
28.7600 9.0
28.7800 5.0
28.8000 3.0
28.8200 5.0
28.8400 11.0
28.8600 13.0
28.8800 12.0
28.9000 3.0
28.9200 5.0
28.9400 4.0
28.9600 14.0
28.9800 10.0
29.0000 5.0
29.0200 5.0
29.0400 7.0
29.0600 6.0
29.0800 7.0
29.1000 6.0
29.1200 1.0
29.1400 4.0
29.1600 8.0
29.1800 7.0
29.2000 0.0
29.2200 6.0
29.2400 9.0
29.2600 9.0
29.2800 7.0
29.3000 7.0
29.3200 7.0
29.3400 8.0
29.3600 6.0
29.3800 6.0
29.4000 9.0
29.4200 2.0
29.4400 9.0
29.4600 7.0
29.4800 8.0
29.5000 12.0
29.5200 6.0
29.5400 16.0
29.5600 7.0
29.5800 4.0
29.6000 6.0
29.6200 5.0
29.6400 4.0
29.6600 10.0
29.6800 5.0
29.7000 8.0
29.7200 6.0
29.7400 5.0
29.7600 6.0
29.7800 4.0
29.8000 4.0
29.8200 4.0
29.8400 8.0
29.8600 5.0
29.8800 5.0
29.9000 7.0
29.9200 5.0
29.9400 7.0
29.9600 9.0
29.9800 7.0
30.0000 6.0
30.0200 4.0
30.0400 4.0
30.0600 3.0
30.0800 11.0
30.1000 8.0
30.1200 11.0
30.1400 15.0
30.1600 6.0
30.1800 7.0
30.2000 5.0
30.2200 8.0
30.2400 4.0
30.2600 9.0
30.2800 12.0
30.3000 2.0
30.3200 5.0
30.3400 6.0
30.3600 5.0
30.3800 8.0
30.4000 6.0
30.4200 8.0
30.4400 6.0
30.4600 4.0
30.4800 5.0
30.5000 10.0
30.5200 5.0
30.5400 9.0
30.5600 2.0
30.5800 5.0
30.6000 4.0
30.6200 5.0
30.6400 8.0
30.6600 4.0
30.6800 5.0
30.7000 11.0
30.7200 8.0
30.7400 8.0
30.7600 4.0
30.7800 8.0
30.8000 6.0
30.8200 11.0
30.8400 5.0
30.8600 6.0
30.8800 6.0
30.9000 5.0
30.9200 5.0
30.9400 8.0
30.9600 7.0
30.9800 3.0
31.0000 4.0
31.0200 6.0
31.0400 3.0
31.0600 5.0
31.0800 6.0
31.1000 4.0
31.1200 6.0
31.1400 11.0
31.1600 8.0
31.1800 6.0
31.2000 7.0
31.2200 7.0
31.2400 7.0
31.2600 5.0
31.2800 7.0
31.3000 4.0
31.3200 5.0
31.3400 4.0
31.3600 9.0
31.3800 8.0
31.4000 3.0
31.4200 3.0
31.4400 5.0
31.4600 5.0
31.4800 6.0
31.5000 7.0
31.5200 9.0
31.5400 7.0
31.5600 5.0
31.5800 4.0
31.6000 2.0
31.6200 7.0
31.6400 6.0
31.6600 6.0
31.6800 7.0
31.7000 4.0
31.7200 8.0
31.7400 5.0
31.7600 7.0
31.7800 4.0
31.8000 6.0
31.8200 1.0
31.8400 4.0
31.8600 6.0
31.8800 3.0
31.9000 11.0
31.9200 5.0
31.9400 3.0
31.9600 4.0
31.9800 7.0
32.0000 5.0
32.0200 6.0
32.0400 8.0
32.0600 4.0
32.0800 4.0
32.1000 11.0
32.1200 4.0
32.1400 7.0
32.1600 4.0
32.1800 6.0
32.2000 6.0
32.2200 10.0
32.2400 4.0
32.2600 4.0
32.2800 9.0
32.3000 4.0
32.3200 10.0
32.3400 11.0
32.3600 7.0
32.3800 4.0
32.4000 5.0
32.4200 6.0
32.4400 8.0
32.4600 5.0
32.4800 4.0
32.5000 5.0
32.5200 7.0
32.5400 4.0
32.5600 9.0
32.5800 3.0
32.6000 4.0
32.6200 9.0
32.6400 6.0
32.6600 6.0
32.6800 7.0
32.7000 10.0
32.7200 4.0
32.7400 6.0
32.7600 7.0
32.7800 4.0
32.8000 2.0
32.8200 3.0
32.8400 4.0
32.8600 4.0
32.8800 7.0
32.9000 3.0
32.9200 11.0
32.9400 4.0
32.9600 9.0
32.9800 7.0
33.0000 10.0
33.0200 12.0
33.0400 6.0
33.0600 85.0
33.0800 566.0
33.1000 161.0
33.1200 14.0
33.1400 9.0
33.1600 4.0
33.1800 5.0
33.2000 6.0
33.2200 8.0
33.2400 7.0
33.2600 2.0
33.2800 3.0
33.3000 8.0
33.3200 13.0
33.3400 5.0
33.3600 8.0
33.3800 5.0
33.4000 5.0
33.4200 3.0
33.4400 8.0
33.4600 6.0
33.4800 5.0
33.5000 5.0
33.5200 7.0
33.5400 6.0
33.5600 3.0
33.5800 5.0
33.6000 4.0
33.6200 4.0
33.6400 6.0
33.6600 2.0
33.6800 6.0
33.7000 7.0
33.7200 5.0
33.7400 6.0
33.7600 8.0
33.7800 4.0
33.8000 5.0
33.8200 8.0
33.8400 2.0
33.8600 7.0
33.8800 4.0
33.9000 4.0
33.9200 3.0
33.9400 3.0
33.9600 3.0
33.9800 2.0
34.0000 4.0
34.0200 5.0
34.0400 8.0
34.0600 9.0
34.0800 6.0
34.1000 3.0
34.1200 6.0
34.1400 5.0
34.1600 7.0
34.1800 9.0
34.2000 6.0
34.2200 4.0
34.2400 5.0
34.2600 3.0
34.2800 4.0
34.3000 4.0
34.3200 2.0
34.3400 4.0
34.3600 5.0
34.3800 8.0
34.4000 7.0
34.4200 3.0
34.4400 6.0
34.4600 4.0
34.4800 4.0
34.5000 3.0
34.5200 6.0
34.5400 5.0
34.5600 4.0
34.5800 8.0
34.6000 4.0
34.6200 6.0
34.6400 2.0
34.6600 5.0
34.6800 2.0
34.7000 5.0
34.7200 3.0
34.7400 4.0
34.7600 1.0
34.7800 6.0
34.8000 8.0
34.8200 4.0
34.8400 10.0
34.8600 4.0
34.8800 2.0
34.9000 1.0
34.9200 8.0
34.9400 6.0
34.9600 4.0
34.9800 2.0
35.0000 6.0
35.0200 4.0
35.0400 2.0
35.0600 1.0
35.0800 4.0
35.1000 4.0
35.1200 1.0
35.1400 6.0
35.1600 6.0
35.1800 5.0
35.2000 9.0
35.2200 3.0
35.2400 2.0
35.2600 4.0
35.2800 5.0
35.3000 2.0
35.3200 5.0
35.3400 5.0
35.3600 7.0
35.3800 6.0
35.4000 7.0
35.4200 0.0
35.4400 7.0
35.4600 5.0
35.4800 4.0
35.5000 3.0
35.5200 2.0
35.5400 5.0
35.5600 5.0
35.5800 4.0
35.6000 6.0
35.6200 4.0
35.6400 2.0
35.6600 4.0
35.6800 3.0
35.7000 3.0
35.7200 3.0
35.7400 5.0
35.7600 4.0
35.7800 3.0
35.8000 2.0
35.8200 4.0
35.8400 2.0
35.8600 5.0
35.8800 6.0
35.9000 5.0
35.9200 1.0
35.9400 9.0
35.9600 3.0
35.9800 5.0
36.0000 7.0
36.0200 3.0
36.0400 6.0
36.0600 4.0
36.0800 4.0
36.1000 4.0
36.1200 4.0
36.1400 2.0
36.1600 7.0
36.1800 7.0
36.2000 3.0
36.2200 3.0
36.2400 2.0
36.2600 10.0
36.2800 5.0
36.3000 5.0
36.3200 1.0
36.3400 6.0
36.3600 2.0
36.3800 4.0
36.4000 7.0
36.4200 3.0
36.4400 6.0
36.4600 5.0
36.4800 5.0
36.5000 3.0
36.5200 5.0
36.5400 6.0
36.5600 4.0
36.5800 5.0
36.6000 6.0
36.6200 2.0
36.6400 6.0
36.6600 2.0
36.6800 8.0
36.7000 5.0
36.7200 6.0
36.7400 5.0
36.7600 7.0
36.7800 3.0
36.8000 2.0
36.8200 2.0
36.8400 7.0
36.8600 4.0
36.8800 4.0
36.9000 3.0
36.9200 2.0
36.9400 5.0
36.9600 9.0
36.9800 6.0
37.0000 5.0
37.0200 10.0
37.0400 7.0
37.0600 7.0
37.0800 6.0
37.1000 4.0
37.1200 5.0
37.1400 4.0
37.1600 7.0
37.1800 4.0
37.2000 4.0
37.2200 1.0
37.2400 8.0
37.2600 4.0
37.2800 6.0
37.3000 3.0
37.3200 7.0
37.3400 4.0
37.3600 4.0
37.3800 6.0
37.4000 1.0
37.4200 4.0
37.4400 4.0
37.4600 9.0
37.4800 6.0
37.5000 5.0
37.5200 5.0
37.5400 8.0
37.5600 6.0
37.5800 2.0
37.6000 1.0
37.6200 5.0
37.6400 5.0
37.6600 3.0
37.6800 10.0
37.7000 5.0
37.7200 3.0
37.7400 4.0
37.7600 2.0
37.7800 6.0
37.8000 4.0
37.8200 5.0
37.8400 4.0
37.8600 7.0
37.8800 4.0
37.9000 6.0
37.9200 4.0
37.9400 8.0
37.9600 1.0
37.9800 9.0
38.0000 6.0
38.0200 5.0
38.0400 10.0
38.0600 4.0
38.0800 6.0
38.1000 6.0
38.1200 6.0
38.1400 11.0
38.1600 0.0
38.1800 8.0
38.2000 6.0
38.2200 6.0
38.2400 7.0
38.2600 5.0
38.2800 5.0
38.3000 3.0
38.3200 7.0
38.3400 3.0
38.3600 3.0
38.3800 8.0
38.4000 10.0
38.4200 5.0
38.4400 8.0
38.4600 8.0
38.4800 5.0
38.5000 4.0
38.5200 6.0
38.5400 7.0
38.5600 6.0
38.5800 9.0
38.6000 2.0
38.6200 4.0
38.6400 6.0
38.6600 4.0
38.6800 6.0
38.7000 9.0
38.7200 4.0
38.7400 6.0
38.7600 7.0
38.7800 5.0
38.8000 9.0
38.8200 7.0
38.8400 10.0
38.8600 4.0
38.8800 9.0
38.9000 8.0
38.9200 7.0
38.9400 2.0
38.9600 9.0
38.9800 10.0
39.0000 6.0
39.0200 4.0
39.0400 7.0
39.0600 2.0
39.0800 10.0
39.1000 5.0
39.1200 3.0
39.1400 5.0
39.1600 14.0
39.1800 5.0
39.2000 12.0
39.2200 4.0
39.2400 10.0
39.2600 12.0
39.2800 11.0
39.3000 9.0
39.3200 12.0
39.3400 11.0
39.3600 13.0
39.3800 4.0
39.4000 14.0
39.4200 20.0
39.4400 16.0
39.4600 19.0
39.4800 27.0
39.5000 10.0
39.5200 21.0
39.5400 20.0
39.5600 21.0
39.5800 15.0
39.6000 27.0
39.6200 24.0
39.6400 24.0
39.6600 36.0
39.6800 36.0
39.7000 46.0
39.7200 42.0
39.7400 53.0
39.7600 61.0
39.7800 75.0
39.8000 81.0
39.8200 89.0
39.8400 119.0
39.8600 128.0
39.8800 135.0
39.9000 159.0
39.9200 177.0
39.9400 160.0
39.9600 197.0
39.9800 195.0
40.0000 211.0
40.0200 218.0
40.0400 216.0
40.0600 243.0
40.0800 237.0
40.1000 230.0
40.1200 212.0
40.1400 212.0
40.1600 175.0
40.1800 208.0
40.2000 143.0
40.2200 136.0
40.2400 153.0
40.2600 116.0
40.2800 124.0
40.3000 101.0
40.3200 103.0
40.3400 64.0
40.3600 69.0
40.3800 61.0
40.4000 60.0
40.4200 56.0
40.4400 37.0
40.4600 30.0
40.4800 39.0
40.5000 30.0
40.5200 21.0
40.5400 21.0
40.5600 27.0
40.5800 22.0
40.6000 20.0
40.6200 14.0
40.6400 14.0
40.6600 17.0
40.6800 15.0
40.7000 8.0
40.7200 12.0
40.7400 6.0
40.7600 12.0
40.7800 9.0
40.8000 13.0
40.8200 10.0
40.8400 8.0
40.8600 12.0
40.8800 8.0
40.9000 7.0
40.9200 11.0
40.9400 5.0
40.9600 6.0
40.9800 15.0
41.0000 10.0
41.0200 10.0
41.0400 10.0
41.0600 6.0
41.0800 7.0
41.1000 6.0
41.1200 8.0
41.1400 5.0
41.1600 9.0
41.1800 9.0
41.2000 7.0
41.2200 7.0
41.2400 11.0
41.2600 7.0
41.2800 6.0
41.3000 5.0
41.3200 2.0
41.3400 10.0
41.3600 6.0
41.3800 6.0
41.4000 10.0
41.4200 5.0
41.4400 4.0
41.4600 7.0
41.4800 3.0
41.5000 5.0
41.5200 5.0
41.5400 5.0
41.5600 6.0
41.5800 8.0
41.6000 8.0
41.6200 4.0
41.6400 2.0
41.6600 2.0
41.6800 5.0
41.7000 5.0
41.7200 7.0
41.7400 4.0
41.7600 6.0
41.7800 3.0
41.8000 6.0
41.8200 4.0
41.8400 6.0
41.8600 4.0
41.8800 4.0
41.9000 6.0
41.9200 5.0
41.9400 6.0
41.9600 5.0
41.9800 2.0
42.0000 5.0
42.0200 5.0
42.0400 4.0
42.0600 6.0
42.0800 1.0
42.1000 3.0
42.1200 7.0
42.1400 1.0
42.1600 4.0
42.1800 7.0
42.2000 3.0
42.2200 2.0
42.2400 3.0
42.2600 6.0
42.2800 2.0
42.3000 4.0
42.3200 2.0
42.3400 3.0
42.3600 7.0
42.3800 3.0
42.4000 8.0
42.4200 2.0
42.4400 6.0
42.4600 6.0
42.4800 5.0
42.5000 3.0
42.5200 4.0
42.5400 4.0
42.5600 6.0
42.5800 5.0
42.6000 0.0
42.6200 4.0
42.6400 8.0
42.6600 1.0
42.6800 4.0
42.7000 2.0
42.7200 2.0
42.7400 6.0
42.7600 2.0
42.7800 4.0
42.8000 8.0
42.8200 2.0
42.8400 4.0
42.8600 1.0
42.8800 2.0
42.9000 5.0
42.9200 2.0
42.9400 6.0
42.9600 4.0
42.9800 3.0
43.0000 7.0
43.0200 6.0
43.0400 5.0
43.0600 3.0
43.0800 4.0
43.1000 3.0
43.1200 5.0
43.1400 0.0
43.1600 5.0
43.1800 4.0
43.2000 5.0
43.2200 2.0
43.2400 5.0
43.2600 3.0
43.2800 6.0
43.3000 4.0
43.3200 2.0
43.3400 3.0
43.3600 6.0
43.3800 4.0
43.4000 5.0
43.4200 3.0
43.4400 1.0
43.4600 3.0
43.4800 4.0
43.5000 6.0
43.5200 2.0
43.5400 2.0
43.5600 4.0
43.5800 4.0
43.6000 3.0
43.6200 5.0
43.6400 4.0
43.6600 3.0
43.6800 2.0
43.7000 4.0
43.7200 3.0
43.7400 8.0
43.7600 5.0
43.7800 5.0
43.8000 5.0
43.8200 5.0
43.8400 5.0
43.8600 0.0
43.8800 6.0
43.9000 3.0
43.9200 6.0
43.9400 5.0
43.9600 6.0
43.9800 5.0
44.0000 4.0
44.0200 3.0
44.0400 2.0
44.0600 4.0
44.0800 0.0
44.1000 7.0
44.1200 4.0
44.1400 2.0
44.1600 5.0
44.1800 3.0
44.2000 4.0
44.2200 6.0
44.2400 3.0
44.2600 3.0
44.2800 4.0
44.3000 1.0
44.3200 6.0
44.3400 4.0
44.3600 3.0
44.3800 5.0
44.4000 7.0
44.4200 3.0
44.4400 6.0
44.4600 2.0
44.4800 5.0
44.5000 5.0
44.5200 1.0
44.5400 4.0
44.5600 0.0
44.5800 4.0
44.6000 5.0
44.6200 5.0
44.6400 4.0
44.6600 4.0
44.6800 2.0
44.7000 5.0
44.7200 3.0
44.7400 3.0
44.7600 2.0
44.7800 7.0
44.8000 4.0
44.8200 2.0
44.8400 2.0
44.8600 3.0
44.8800 4.0
44.9000 3.0
44.9200 6.0
44.9400 8.0
44.9600 4.0
44.9800 4.0
45.0000 3.0
45.0200 2.0
45.0400 2.0
45.0600 5.0
45.0800 2.0
45.1000 2.0
45.1200 3.0
45.1400 3.0
45.1600 7.0
45.1800 4.0
45.2000 6.0
45.2200 6.0
45.2400 2.0
45.2600 6.0
45.2800 3.0
45.3000 5.0
45.3200 6.0
45.3400 2.0
45.3600 6.0
45.3800 3.0
45.4000 4.0
45.4200 5.0
45.4400 5.0
45.4600 2.0
45.4800 5.0
45.5000 3.0
45.5200 3.0
45.5400 7.0
45.5600 0.0
45.5800 2.0
45.6000 3.0
45.6200 5.0
45.6400 2.0
45.6600 2.0
45.6800 5.0
45.7000 5.0
45.7200 7.0
45.7400 5.0
45.7600 2.0
45.7800 2.0
45.8000 6.0
45.8200 7.0
45.8400 7.0
45.8600 6.0
45.8800 8.0
45.9000 1.0
45.9200 9.0
45.9400 8.0
45.9600 6.0
45.9800 8.0
46.0000 6.0
46.0200 5.0
46.0400 7.0
46.0600 7.0
46.0800 6.0
46.1000 7.0
46.1200 10.0
46.1400 9.0
46.1600 8.0
46.1800 8.0
46.2000 16.0
46.2200 9.0
46.2400 14.0
46.2600 9.0
46.2800 10.0
46.3000 14.0
46.3200 15.0
46.3400 18.0
46.3600 12.0
46.3800 19.0
46.4000 18.0
46.4200 14.0
46.4400 15.0
46.4600 25.0
46.4800 21.0
46.5000 28.0
46.5200 14.0
46.5400 15.0
46.5600 28.0
46.5800 22.0
46.6000 21.0
46.6200 13.0
46.6400 19.0
46.6600 19.0
46.6800 21.0
46.7000 11.0
46.7200 4.0
46.7400 17.0
46.7600 12.0
46.7800 9.0
46.8000 8.0
46.8200 11.0
46.8400 7.0
46.8600 7.0
46.8800 7.0
46.9000 4.0
46.9200 8.0
46.9400 4.0
46.9600 1.0
46.9800 3.0
47.0000 10.0
47.0200 7.0
47.0400 7.0
47.0600 10.0
47.0800 3.0
47.1000 4.0
47.1200 6.0
47.1400 3.0
47.1600 9.0
47.1800 6.0
47.2000 5.0
47.2200 4.0
47.2400 4.0
47.2600 6.0
47.2800 10.0
47.3000 5.0
47.3200 8.0
47.3400 6.0
47.3600 4.0
47.3800 2.0
47.4000 1.0
47.4200 6.0
47.4400 6.0
47.4600 6.0
47.4800 4.0
47.5000 3.0
47.5200 2.0
47.5400 1.0
47.5600 7.0
47.5800 2.0
47.6000 4.0
47.6200 3.0
47.6400 2.0
47.6600 3.0
47.6800 3.0
47.7000 5.0
47.7200 7.0
47.7400 5.0
47.7600 1.0
47.7800 3.0
47.8000 3.0
47.8200 0.0
47.8400 5.0
47.8600 1.0
47.8800 1.0
47.9000 3.0
47.9200 5.0
47.9400 7.0
47.9600 5.0
47.9800 3.0
48.0000 8.0
48.0200 2.0
48.0400 2.0
48.0600 5.0
48.0800 5.0
48.1000 4.0
48.1200 1.0
48.1400 2.0
48.1600 1.0
48.1800 3.0
48.2000 3.0
48.2200 2.0
48.2400 3.0
48.2600 5.0
48.2800 4.0
48.3000 4.0
48.3200 2.0
48.3400 4.0
48.3600 4.0
48.3800 4.0
48.4000 3.0
48.4200 3.0
48.4400 7.0
48.4600 1.0
48.4800 3.0
48.5000 5.0
48.5200 4.0
48.5400 4.0
48.5600 2.0
48.5800 1.0
48.6000 4.0
48.6200 2.0
48.6400 6.0
48.6600 6.0
48.6800 2.0
48.7000 8.0
48.7200 2.0
48.7400 9.0
48.7600 4.0
48.7800 8.0
48.8000 3.0
48.8200 3.0
48.8400 4.0
48.8600 4.0
48.8800 5.0
48.9000 1.0
48.9200 3.0
48.9400 2.0
48.9600 2.0
48.9800 2.0
49.0000 1.0
49.0200 4.0
49.0400 4.0
49.0600 7.0
49.0800 3.0
49.1000 2.0
49.1200 3.0
49.1400 2.0
49.1600 4.0
49.1800 5.0
49.2000 4.0
49.2200 2.0
49.2400 6.0
49.2600 7.0
49.2800 6.0
49.3000 8.0
49.3200 1.0
49.3400 1.0
49.3600 2.0
49.3800 5.0
49.4000 3.0
49.4200 1.0
49.4400 2.0
49.4600 6.0
49.4800 4.0
49.5000 0.0
49.5200 4.0
49.5400 4.0
49.5600 3.0
49.5800 3.0
49.6000 5.0
49.6200 3.0
49.6400 4.0
49.6600 2.0
49.6800 1.0
49.7000 5.0
49.7200 1.0
49.7400 1.0
49.7600 1.0
49.7800 4.0
49.8000 6.0
49.8200 6.0
49.8400 3.0
49.8600 3.0
49.8800 5.0
49.9000 2.0
49.9200 1.0
49.9400 2.0
49.9600 5.0
49.9800 2.0
50.0000 3.0
50.0200 3.0
50.0400 2.0
50.0600 3.0
50.0800 0.0
50.1000 2.0
50.1200 3.0
50.1400 3.0
50.1600 4.0
50.1800 5.0
50.2000 3.0
50.2200 1.0
50.2400 2.0
50.2600 4.0
50.2800 5.0
50.3000 3.0
50.3200 5.0
50.3400 3.0
50.3600 3.0
50.3800 2.0
50.4000 3.0
50.4200 2.0
50.4400 1.0
50.4600 4.0
50.4800 3.0
50.5000 2.0
50.5200 4.0
50.5400 0.0
50.5600 3.0
50.5800 6.0
50.6000 3.0
50.6200 3.0
50.6400 5.0
50.6600 7.0
50.6800 4.0
50.7000 1.0
50.7200 2.0
50.7400 9.0
50.7600 4.0
50.7800 3.0
50.8000 0.0
50.8200 3.0
50.8400 2.0
50.8600 0.0
50.8800 4.0
50.9000 2.0
50.9200 2.0
50.9400 1.0
50.9600 3.0
50.9800 4.0
51.0000 5.0
51.0200 1.0
51.0400 3.0
51.0600 4.0
51.0800 2.0
51.1000 5.0
51.1200 2.0
51.1400 0.0
51.1600 3.0
51.1800 3.0
51.2000 2.0
51.2200 2.0
51.2400 3.0
51.2600 2.0
51.2800 2.0
51.3000 3.0
51.3200 5.0
51.3400 0.0
51.3600 5.0
51.3800 3.0
51.4000 5.0
51.4200 2.0
51.4400 3.0
51.4600 2.0
51.4800 4.0
51.5000 3.0
51.5200 2.0
51.5400 7.0
51.5600 2.0
51.5800 6.0
51.6000 4.0
51.6200 6.0
51.6400 3.0
51.6600 0.0
51.6800 3.0
51.7000 1.0
51.7200 4.0
51.7400 4.0
51.7600 2.0
51.7800 1.0
51.8000 3.0
51.8200 3.0
51.8400 0.0
51.8600 3.0
51.8800 6.0
51.9000 3.0
51.9200 1.0
51.9400 2.0
51.9600 2.0
51.9800 6.0
52.0000 3.0
52.0200 5.0
52.0400 4.0
52.0600 1.0
52.0800 1.0
52.1000 2.0
52.1200 2.0
52.1400 3.0
52.1600 3.0
52.1800 2.0
52.2000 3.0
52.2200 4.0
52.2400 4.0
52.2600 6.0
52.2800 2.0
52.3000 5.0
52.3200 2.0
52.3400 3.0
52.3600 0.0
52.3800 1.0
52.4000 2.0
52.4200 5.0
52.4400 7.0
52.4600 1.0
52.4800 3.0
52.5000 1.0
52.5200 4.0
52.5400 5.0
52.5600 3.0
52.5800 3.0
52.6000 3.0
52.6200 4.0
52.6400 3.0
52.6600 3.0
52.6800 3.0
52.7000 1.0
52.7200 4.0
52.7400 6.0
52.7600 2.0
52.7800 2.0
52.8000 2.0
52.8200 1.0
52.8400 4.0
52.8600 5.0
52.8800 4.0
52.9000 2.0
52.9200 1.0
52.9400 7.0
52.9600 4.0
52.9800 4.0
53.0000 5.0
53.0200 1.0
53.0400 2.0
53.0600 0.0
53.0800 3.0
53.1000 5.0
53.1200 3.0
53.1400 2.0
53.1600 2.0
53.1800 4.0
53.2000 3.0
53.2200 3.0
53.2400 5.0
53.2600 1.0
53.2800 0.0
53.3000 6.0
53.3200 1.0
53.3400 5.0
53.3600 3.0
53.3800 0.0
53.4000 1.0
53.4200 7.0
53.4400 2.0
53.4600 5.0
53.4800 4.0
53.5000 5.0
53.5200 3.0
53.5400 2.0
53.5600 5.0
53.5800 1.0
53.6000 1.0
53.6200 0.0
53.6400 3.0
53.6600 4.0
53.6800 2.0
53.7000 3.0
53.7200 3.0
53.7400 3.0
53.7600 4.0
53.7800 3.0
53.8000 2.0
53.8200 2.0
53.8400 3.0
53.8600 2.0
53.8800 4.0
53.9000 1.0
53.9200 0.0
53.9400 1.0
53.9600 2.0
53.9800 6.0
54.0000 0.0
54.0200 3.0
54.0400 4.0
54.0600 2.0
54.0800 2.0
54.1000 8.0
54.1200 2.0
54.1400 5.0
54.1600 6.0
54.1800 2.0
54.2000 3.0
54.2200 2.0
54.2400 0.0
54.2600 2.0
54.2800 1.0
54.3000 1.0
54.3200 2.0
54.3400 2.0
54.3600 0.0
54.3800 3.0
54.4000 3.0
54.4200 4.0
54.4400 0.0
54.4600 3.0
54.4800 3.0
54.5000 0.0
54.5200 0.0
54.5400 7.0
54.5600 1.0
54.5800 3.0
54.6000 4.0
54.6200 3.0
54.6400 4.0
54.6600 2.0
54.6800 4.0
54.7000 4.0
54.7200 5.0
54.7400 2.0
54.7600 4.0
54.7800 2.0
54.8000 6.0
54.8200 4.0
54.8400 2.0
54.8600 1.0
54.8800 4.0
54.9000 2.0
54.9200 4.0
54.9400 1.0
54.9600 4.0
54.9800 2.0
55.0000 4.0
55.0200 1.0
55.0400 6.0
55.0600 4.0
55.0800 2.0
55.1000 2.0
55.1200 4.0
55.1400 4.0
55.1600 3.0
55.1800 6.0
55.2000 4.0
55.2200 2.0
55.2400 2.0
55.2600 3.0
55.2800 1.0
55.3000 3.0
55.3200 1.0
55.3400 3.0
55.3600 3.0
55.3800 3.0
55.4000 2.0
55.4200 1.0
55.4400 4.0
55.4600 1.0
55.4800 3.0
55.5000 0.0
55.5200 2.0
55.5400 4.0
55.5600 2.0
55.5800 4.0
55.6000 7.0
55.6200 2.0
55.6400 4.0
55.6600 2.0
55.6800 4.0
55.7000 2.0
55.7200 2.0
55.7400 1.0
55.7600 3.0
55.7800 7.0
55.8000 1.0
55.8200 2.0
55.8400 3.0
55.8600 2.0
55.8800 0.0
55.9000 2.0
55.9200 0.0
55.9400 1.0
55.9600 2.0
55.9800 3.0
56.0000 3.0
56.0200 5.0
56.0400 0.0
56.0600 4.0
56.0800 3.0
56.1000 2.0
56.1200 2.0
56.1400 3.0
56.1600 4.0
56.1800 2.0
56.2000 7.0
56.2200 3.0
56.2400 2.0
56.2600 2.0
56.2800 1.0
56.3000 1.0
56.3200 3.0
56.3400 1.0
56.3600 3.0
56.3800 4.0
56.4000 2.0
56.4200 3.0
56.4400 3.0
56.4600 3.0
56.4800 6.0
56.5000 1.0
56.5200 4.0
56.5400 5.0
56.5600 7.0
56.5800 0.0
56.6000 2.0
56.6200 6.0
56.6400 4.0
56.6600 1.0
56.6800 1.0
56.7000 4.0
56.7200 5.0
56.7400 3.0
56.7600 0.0
56.7800 3.0
56.8000 4.0
56.8200 2.0
56.8400 1.0
56.8600 4.0
56.8800 1.0
56.9000 2.0
56.9200 2.0
56.9400 4.0
56.9600 2.0
56.9800 4.0
57.0000 2.0
57.0200 1.0
57.0400 1.0
57.0600 4.0
57.0800 3.0
57.1000 3.0
57.1200 6.0
57.1400 5.0
57.1600 1.0
57.1800 3.0
57.2000 3.0
57.2200 1.0
57.2400 3.0
57.2600 3.0
57.2800 2.0
57.3000 1.0
57.3200 4.0
57.3400 8.0
57.3600 4.0
57.3800 1.0
57.4000 3.0
57.4200 0.0
57.4400 1.0
57.4600 4.0
57.4800 2.0
57.5000 4.0
57.5200 4.0
57.5400 0.0
57.5600 3.0
57.5800 3.0
57.6000 1.0
57.6200 1.0
57.6400 3.0
57.6600 1.0
57.6800 4.0
57.7000 3.0
57.7200 2.0
57.7400 1.0
57.7600 3.0
57.7800 1.0
57.8000 2.0
57.8200 3.0
57.8400 6.0
57.8600 1.0
57.8800 2.0
57.9000 2.0
57.9200 3.0
57.9400 5.0
57.9600 2.0
57.9800 3.0
58.0000 7.0
58.0200 5.0
58.0400 0.0
58.0600 2.0
58.0800 3.0
58.1000 5.0
58.1200 2.0
58.1400 2.0
58.1600 1.0
58.1800 3.0
58.2000 3.0
58.2200 1.0
58.2400 1.0
58.2600 2.0
58.2800 2.0
58.3000 6.0
58.3200 1.0
58.3400 5.0
58.3600 2.0
58.3800 2.0
58.4000 2.0
58.4200 3.0
58.4400 4.0
58.4600 1.0
58.4800 6.0
58.5000 5.0
58.5200 2.0
58.5400 1.0
58.5600 4.0
58.5800 0.0
58.6000 3.0
58.6200 2.0
58.6400 3.0
58.6600 1.0
58.6800 3.0
58.7000 1.0
58.7200 2.0
58.7400 4.0
58.7600 3.0
58.7800 2.0
58.8000 2.0
58.8200 1.0
58.8400 5.0
58.8600 4.0
58.8800 1.0
58.9000 2.0
58.9200 3.0
58.9400 2.0
58.9600 5.0
58.9800 2.0
59.0000 6.0
59.0200 5.0
59.0400 2.0
59.0600 7.0
59.0800 3.0
59.1000 5.0
59.1200 2.0
59.1400 6.0
59.1600 4.0
59.1800 3.0
59.2000 5.0
59.2200 2.0
59.2400 4.0
59.2600 5.0
59.2800 3.0
59.3000 2.0
59.3200 4.0
59.3400 1.0
59.3600 4.0
59.3800 5.0
59.4000 3.0
59.4200 2.0
59.4400 2.0
59.4600 3.0
59.4800 2.0
59.5000 6.0
59.5200 4.0
59.5400 0.0
59.5600 3.0
59.5800 2.0
59.6000 1.0
59.6200 0.0
59.6400 4.0
59.6600 4.0
59.6800 1.0
59.7000 2.0
59.7200 3.0
59.7400 3.0
59.7600 2.0
59.7800 3.0
59.8000 4.0
59.8200 1.0
59.8400 3.0
59.8600 1.0
59.8800 3.0
59.9000 3.0
59.9200 1.0
59.9400 2.0
59.9600 2.0
59.9800 4.0
60.0000 3.0
60.0200 2.0
60.0400 1.0
60.0600 3.0
60.0800 1.0
60.1000 3.0
60.1200 7.0
60.1400 3.0
60.1600 8.0
60.1800 3.0
60.2000 0.0
60.2200 4.0
60.2400 3.0
60.2600 3.0
60.2800 3.0
60.3000 2.0
60.3200 1.0
60.3400 3.0
60.3600 3.0
60.3800 5.0
60.4000 1.0
60.4200 4.0
60.4400 5.0
60.4600 5.0
60.4800 3.0
60.5000 2.0
60.5200 2.0
60.5400 5.0
60.5600 4.0
60.5800 2.0
60.6000 3.0
60.6200 2.0
60.6400 0.0
60.6600 4.0
60.6800 3.0
60.7000 1.0
60.7200 1.0
60.7400 2.0
60.7600 4.0
60.7800 4.0
60.8000 3.0
60.8200 3.0
60.8400 1.0
60.8600 2.0
60.8800 5.0
60.9000 3.0
60.9200 5.0
60.9400 4.0
60.9600 2.0
60.9800 3.0
61.0000 2.0
61.0200 3.0
61.0400 4.0
61.0600 2.0
61.0800 3.0
61.1000 2.0
61.1200 2.0
61.1400 5.0
61.1600 6.0
61.1800 2.0
61.2000 2.0
61.2200 3.0
61.2400 0.0
61.2600 2.0
61.2800 4.0
61.3000 2.0
61.3200 4.0
61.3400 3.0
61.3600 3.0
61.3800 3.0
61.4000 1.0
61.4200 1.0
61.4400 5.0
61.4600 1.0
61.4800 4.0
61.5000 2.0
61.5200 4.0
61.5400 2.0
61.5600 5.0
61.5800 2.0
61.6000 2.0
61.6200 2.0
61.6400 3.0
61.6600 5.0
61.6800 2.0
61.7000 1.0
61.7200 3.0
61.7400 4.0
61.7600 4.0
61.7800 3.0
61.8000 5.0
61.8200 5.0
61.8400 2.0
61.8600 5.0
61.8800 5.0
61.9000 1.0
61.9200 3.0
61.9400 1.0
61.9600 1.0
61.9800 4.0
62.0000 5.0
62.0200 7.0
62.0400 3.0
62.0600 2.0
62.0800 3.0
62.1000 0.0
62.1200 4.0
62.1400 2.0
62.1600 8.0
62.1800 3.0
62.2000 1.0
62.2200 2.0
62.2400 2.0
62.2600 5.0
62.2800 3.0
62.3000 3.0
62.3200 5.0
62.3400 3.0
62.3600 7.0
62.3800 1.0
62.4000 3.0
62.4200 4.0
62.4400 0.0
62.4600 4.0
62.4800 4.0
62.5000 3.0
62.5200 1.0
62.5400 3.0
62.5600 3.0
62.5800 3.0
62.6000 2.0
62.6200 6.0
62.6400 4.0
62.6600 8.0
62.6800 0.0
62.7000 3.0
62.7200 2.0
62.7400 3.0
62.7600 4.0
62.7800 0.0
62.8000 3.0
62.8200 1.0
62.8400 4.0
62.8600 5.0
62.8800 2.0
62.9000 2.0
62.9200 3.0
62.9400 8.0
62.9600 5.0
62.9800 3.0
63.0000 1.0
63.0200 4.0
63.0400 1.0
63.0600 3.0
63.0800 2.0
63.1000 10.0
63.1200 4.0
63.1400 2.0
63.1600 4.0
63.1800 4.0
63.2000 2.0
63.2200 2.0
63.2400 2.0
63.2600 2.0
63.2800 4.0
63.3000 6.0
63.3200 7.0
63.3400 3.0
63.3600 3.0
63.3800 3.0
63.4000 1.0
63.4200 3.0
63.4400 1.0
63.4600 7.0
63.4800 5.0
63.5000 4.0
63.5200 2.0
63.5400 2.0
63.5600 4.0
63.5800 5.0
63.6000 3.0
63.6200 4.0
63.6400 6.0
63.6600 3.0
63.6800 2.0
63.7000 4.0
63.7200 3.0
63.7400 11.0
63.7600 6.0
63.7800 5.0
63.8000 3.0
63.8200 1.0
63.8400 8.0
63.8600 3.0
63.8800 5.0
63.9000 1.0
63.9200 2.0
63.9400 3.0
63.9600 6.0
63.9800 1.0
64.0000 5.0
64.0200 3.0
64.0400 5.0
64.0600 2.0
64.0800 3.0
64.1000 2.0
64.1200 4.0
64.1400 4.0
64.1600 4.0
64.1800 4.0
64.2000 3.0
64.2200 2.0
64.2400 6.0
64.2600 7.0
64.2800 5.0
64.3000 4.0
64.3200 6.0
64.3400 4.0
64.3600 7.0
64.3800 3.0
64.4000 3.0
64.4200 3.0
64.4400 1.0
64.4600 7.0
64.4800 1.0
64.5000 3.0
64.5200 1.0
64.5400 5.0
64.5600 5.0
64.5800 2.0
64.6000 9.0
64.6200 2.0
64.6400 6.0
64.6600 5.0
64.6800 5.0
64.7000 2.0
64.7200 3.0
64.7400 4.0
64.7600 3.0
64.7800 4.0
64.8000 9.0
64.8200 8.0
64.8400 7.0
64.8600 4.0
64.8800 2.0
64.9000 4.0
64.9200 5.0
64.9400 2.0
64.9600 3.0
64.9800 4.0
65.0000 3.0
65.0200 2.0
65.0400 7.0
65.0600 0.0
65.0800 5.0
65.1000 7.0
65.1200 6.0
65.1400 4.0
65.1600 2.0
65.1800 8.0
65.2000 5.0
65.2200 7.0
65.2400 5.0
65.2600 4.0
65.2800 6.0
65.3000 6.0
65.3200 4.0
65.3400 5.0
65.3600 2.0
65.3800 5.0
65.4000 4.0
65.4200 5.0
65.4400 3.0
65.4600 3.0
65.4800 2.0
65.5000 2.0
65.5200 2.0
65.5400 6.0
65.5600 1.0
65.5800 3.0
65.6000 6.0
65.6200 3.0
65.6400 4.0
65.6600 6.0
65.6800 4.0
65.7000 7.0
65.7200 4.0
65.7400 2.0
65.7600 5.0
65.7800 5.0
65.8000 5.0
65.8200 6.0
65.8400 4.0
65.8600 8.0
65.8800 7.0
65.9000 9.0
65.9200 6.0
65.9400 4.0
65.9600 4.0
65.9800 5.0
66.0000 8.0
66.0200 4.0
66.0400 4.0
66.0600 4.0
66.0800 7.0
66.1000 4.0
66.1200 7.0
66.1400 4.0
66.1600 4.0
66.1800 12.0
66.2000 3.0
66.2200 5.0
66.2400 6.0
66.2600 8.0
66.2800 4.0
66.3000 9.0
66.3200 5.0
66.3400 8.0
66.3600 9.0
66.3800 7.0
66.4000 5.0
66.4200 16.0
66.4400 3.0
66.4600 8.0
66.4800 7.0
66.5000 10.0
66.5200 8.0
66.5400 10.0
66.5600 9.0
66.5800 5.0
66.6000 8.0
66.6200 5.0
66.6400 9.0
66.6600 11.0
66.6800 6.0
66.7000 6.0
66.7200 10.0
66.7400 11.0
66.7600 18.0
66.7800 15.0
66.8000 9.0
66.8200 9.0
66.8400 6.0
66.8600 7.0
66.8800 8.0
66.9000 9.0
66.9200 13.0
66.9400 13.0
66.9600 10.0
66.9800 13.0
67.0000 8.0
67.0200 16.0
67.0400 7.0
67.0600 7.0
67.0800 8.0
67.1000 8.0
67.1200 9.0
67.1400 15.0
67.1600 10.0
67.1800 8.0
67.2000 8.0
67.2200 5.0
67.2400 11.0
67.2600 8.0
67.2800 12.0
67.3000 10.0
67.3200 6.0
67.3400 12.0
67.3600 9.0
67.3800 14.0
67.4000 16.0
67.4200 8.0
67.4400 12.0
67.4600 10.0
67.4800 10.0
67.5000 16.0
67.5200 22.0
67.5400 6.0
67.5600 16.0
67.5800 9.0
67.6000 21.0
67.6200 14.0
67.6400 14.0
67.6600 17.0
67.6800 20.0
67.7000 9.0
67.7200 14.0
67.7400 20.0
67.7600 23.0
67.7800 12.0
67.8000 14.0
67.8200 16.0
67.8400 23.0
67.8600 23.0
67.8800 18.0
67.9000 22.0
67.9200 20.0
67.9400 18.0
67.9600 22.0
67.9800 17.0
68.0000 16.0
68.0200 32.0
68.0400 18.0
68.0600 32.0
68.0800 29.0
68.1000 20.0
68.1200 22.0
68.1400 25.0
68.1600 32.0
68.1800 34.0
68.2000 41.0
68.2200 33.0
68.2400 30.0
68.2600 33.0
68.2800 32.0
68.3000 26.0
68.3200 37.0
68.3400 45.0
68.3600 36.0
68.3800 32.0
68.4000 40.0
68.4200 41.0
68.4400 45.0
68.4600 51.0
68.4800 40.0
68.5000 42.0
68.5200 51.0
68.5400 50.0
68.5600 63.0
68.5800 53.0
68.6000 61.0
68.6200 68.0
68.6400 67.0
68.6600 73.0
68.6800 86.0
68.7000 84.0
68.7200 102.0
68.7400 84.0
68.7600 102.0
68.7800 90.0
68.8000 118.0
68.8200 101.0
68.8400 118.0
68.8600 127.0
68.8800 149.0
68.9000 135.0
68.9200 191.0
68.9400 172.0
68.9600 175.0
68.9800 192.0
69.0000 240.0
69.0200 238.0
69.0400 288.0
69.0600 292.0
69.0800 324.0
69.1000 357.0
69.1200 415.0
69.1400 461.0
69.1600 562.0
69.1800 660.0
69.2000 1113.0
69.2200 5629.0
69.2400 98469.0
69.2600 288129.0
69.2800 154066.0
69.3000 72101.0
69.3200 5948.0
69.3400 1105.0
69.3600 736.0
69.3800 413.0
69.4000 316.0
69.4200 224.0
69.4400 193.0
69.4600 172.0
69.4800 148.0
69.5000 145.0
69.5200 109.0
69.5400 107.0
69.5600 106.0
69.5800 79.0
69.6000 82.0
69.6200 83.0
69.6400 62.0
69.6600 57.0
69.6800 58.0
69.7000 62.0
69.7200 66.0
69.7400 44.0
69.7600 60.0
69.7800 50.0
69.8000 43.0
69.8200 32.0
69.8400 44.0
69.8600 38.0
69.8800 42.0
69.9000 44.0
69.9200 45.0
69.9400 35.0
69.9600 33.0
69.9800 33.0
70.0000 32.0
70.0200 31.0
70.0400 33.0
70.0600 26.0
70.0800 34.0
70.1000 30.0
70.1200 20.0
70.1400 21.0
70.1600 25.0
70.1800 19.0
70.2000 25.0
70.2200 26.0
70.2400 17.0
70.2600 27.0
70.2800 26.0
70.3000 17.0
70.3200 22.0
70.3400 19.0
70.3600 27.0
70.3800 25.0
70.4000 17.0
70.4200 23.0
70.4400 15.0
70.4600 14.0
70.4800 17.0
70.5000 17.0
70.5200 13.0
70.5400 15.0
70.5600 16.0
70.5800 12.0
70.6000 25.0
70.6200 11.0
70.6400 13.0
70.6600 12.0
70.6800 14.0
70.7000 17.0
70.7200 19.0
70.7400 16.0
70.7600 9.0
70.7800 18.0
70.8000 18.0
70.8200 11.0
70.8400 13.0
70.8600 9.0
70.8800 15.0
70.9000 15.0
70.9200 13.0
70.9400 13.0
70.9600 14.0
70.9800 11.0
71.0000 12.0
71.0200 10.0
71.0400 10.0
71.0600 17.0
71.0800 18.0
71.1000 10.0
71.1200 19.0
71.1400 7.0
71.1600 11.0
71.1800 11.0
71.2000 8.0
71.2200 8.0
71.2400 18.0
71.2600 14.0
71.2800 5.0
71.3000 10.0
71.3200 13.0
71.3400 13.0
71.3600 13.0
71.3800 3.0
71.4000 8.0
71.4200 6.0
71.4400 9.0
71.4600 9.0
71.4800 8.0
71.5000 8.0
71.5200 7.0
71.5400 8.0
71.5600 6.0
71.5800 8.0
71.6000 5.0
71.6200 3.0
71.6400 14.0
71.6600 8.0
71.6800 8.0
71.7000 12.0
71.7200 6.0
71.7400 5.0
71.7600 7.0
71.7800 5.0
71.8000 3.0
71.8200 6.0
71.8400 10.0
71.8600 5.0
71.8800 4.0
71.9000 2.0
71.9200 8.0
71.9400 7.0
71.9600 9.0
71.9800 3.0
72.0000 10.0
72.0200 6.0
72.0400 5.0
72.0600 10.0
72.0800 4.0
72.1000 3.0
72.1200 9.0
72.1400 5.0
72.1600 5.0
72.1800 8.0
72.2000 10.0
72.2200 6.0
72.2400 6.0
72.2600 5.0
72.2800 4.0
72.3000 8.0
72.3200 7.0
72.3400 3.0
72.3600 5.0
72.3800 8.0
72.4000 6.0
72.4200 2.0
72.4400 3.0
72.4600 6.0
72.4800 4.0
72.5000 6.0
72.5200 3.0
72.5400 8.0
72.5600 7.0
72.5800 6.0
72.6000 6.0
72.6200 5.0
72.6400 7.0
72.6600 3.0
72.6800 2.0
72.7000 6.0
72.7200 5.0
72.7400 6.0
72.7600 9.0
72.7800 7.0
72.8000 0.0
72.8200 8.0
72.8400 5.0
72.8600 3.0
72.8800 3.0
72.9000 4.0
72.9200 4.0
72.9400 4.0
72.9600 6.0
72.9800 4.0
73.0000 1.0
73.0200 4.0
73.0400 10.0
73.0600 7.0
73.0800 7.0
73.1000 1.0
73.1200 0.0
73.1400 6.0
73.1600 1.0
73.1800 2.0
73.2000 5.0
73.2200 6.0
73.2400 6.0
73.2600 3.0
73.2800 6.0
73.3000 6.0
73.3200 0.0
73.3400 2.0
73.3600 6.0
73.3800 2.0
73.4000 1.0
73.4200 5.0
73.4400 6.0
73.4600 3.0
73.4800 2.0
73.5000 5.0
73.5200 6.0
73.5400 7.0
73.5600 7.0
73.5800 6.0
73.6000 4.0
73.6200 5.0
73.6400 6.0
73.6600 7.0
73.6800 3.0
73.7000 5.0
73.7200 5.0
73.7400 6.0
73.7600 3.0
73.7800 8.0
73.8000 4.0
73.8200 5.0
73.8400 3.0
73.8600 2.0
73.8800 3.0
73.9000 5.0
73.9200 4.0
73.9400 2.0
73.9600 5.0
73.9800 1.0
74.0000 2.0
74.0200 1.0
74.0400 5.0
74.0600 6.0
74.0800 4.0
74.1000 4.0
74.1200 5.0
74.1400 1.0
74.1600 4.0
74.1800 1.0
74.2000 5.0
74.2200 2.0
74.2400 4.0
74.2600 4.0
74.2800 3.0
74.3000 5.0
74.3200 0.0
74.3400 3.0
74.3600 1.0
74.3800 6.0
74.4000 4.0
74.4200 0.0
74.4400 5.0
74.4600 3.0
74.4800 4.0
74.5000 7.0
74.5200 1.0
74.5400 5.0
74.5600 6.0
74.5800 1.0
74.6000 6.0
74.6200 5.0
74.6400 6.0
74.6600 0.0
74.6800 3.0
74.7000 4.0
74.7200 2.0
74.7400 5.0
74.7600 5.0
74.7800 2.0
74.8000 2.0
74.8200 4.0
74.8400 2.0
74.8600 0.0
74.8800 4.0
74.9000 4.0
74.9200 4.0
74.9400 3.0
74.9600 3.0
74.9800 4.0
