0.0100 8449373.0
0.0200 9720283.0
0.0300 8757147.0
0.0400 6247987.0
0.0500 3390525.0
0.0600 1359834.0
0.0700 485144.0
0.0800 246744.0
0.0900 204547.0
0.1000 223262.0
0.1100 233274.0
0.1200 248055.0
0.1300 277259.0
0.1400 294543.0
0.1500 319694.0
0.1600 333283.0
0.1700 349256.0
0.1800 391930.0
0.1900 404207.0
0.2000 424114.0
0.2100 443305.0
0.2200 476919.0
0.2300 490866.0
0.2400 514348.0
0.2500 539857.0
0.2600 543790.0
0.2700 574067.0
0.2800 597669.0
0.2900 610185.0
0.3000 631164.0
0.3100 655123.0
0.3200 671215.0
0.3300 699346.0
0.3400 725451.0
0.3500 736775.0
0.3600 746669.0
0.3700 766933.0
0.3800 791488.0
0.3900 805911.0
0.4000 835473.0
0.4100 822122.0
0.4200 842982.0
0.4300 884941.0
0.4400 888517.0
0.4500 928806.0
0.4600 929164.0
0.4700 951931.0
0.4800 987453.0
0.4900 976486.0
0.5000 986261.0
0.5100 1009982.0
0.5200 1040258.0
0.5300 1078283.0
0.5400 1076734.0
0.5500 1081859.0
0.5600 1086031.0
0.5700 1129539.0
0.5800 1110348.0
0.5900 1148015.0
0.6000 1147658.0
0.6100 1151234.0
0.6200 1179365.0
0.6300 1182345.0
0.6400 1222754.0
0.6500 1207854.0
0.6600 1223707.0
0.6700 1239084.0
0.6800 1215721.0
0.6900 1238607.0
0.7000 1236462.0
0.7100 1256368.0
0.7200 1256487.0
0.7300 1280089.0
0.7400 1270553.0
0.7500 1286645.0
0.7600 1282234.0
0.7700 1290936.0
0.7800 1283665.0
0.7900 1262686.0
0.8000 1256368.0
0.8100 1271030.0
0.8200 1264235.0
0.8300 1232051.0
0.8400 1203324.0
0.8500 1182822.0
0.8600 1192238.0
0.8700 1128943.0
0.8800 1091038.0
0.8900 1067198.0
0.9000 972672.0
0.9100 929402.0
0.9200 855022.0
0.9300 792918.0
0.9400 699108.0
0.9500 599099.0
0.9600 545221.0
0.9700 467145.0
0.9800 419584.0
0.9900 379652.0
1.0000 316953.0
1.0100 287272.0
1.0200 250558.0
1.0300 222427.0
1.0400 214560.0
1.0500 192746.0
1.0600 225745.0
1.0700 204177.0
1.0800 182357.0
1.0900 162810.0
1.1000 147085.0
1.1100 138245.0
1.1200 133151.0
1.1300 127832.0
1.1400 121467.0
1.1500 111444.0
1.1600 99789.0
1.1700 88026.0
1.1800 79071.0
1.1900 73771.0
1.2000 72099.0
1.2100 72064.0
1.2200 71661.0
1.2300 70180.0
1.2400 65434.0
1.2500 59416.0
1.2600 51685.0
1.2700 44430.0
1.2800 40406.0
1.2900 38678.0
1.3000 39220.0
1.3100 41217.0
1.3200 42361.0
1.3300 42283.0
1.3400 39985.0
1.3500 35976.0
1.3600 30365.0
1.3700 25625.0
1.3800 22492.0
1.3900 21261.0
1.4000 21517.0
1.4100 23284.0
1.4200 25489.0
1.4300 26739.0
1.4400 27184.0
1.4500 25033.0
1.4600 22245.0
1.4700 18488.0
1.4800 15010.0
1.4900 12515.0
1.5000 11621.0
1.5100 12000.0
1.5200 13847.0
1.5300 15922.0
1.5400 17541.0
1.5500 18652.0
1.5600 17827.0
1.5700 16082.0
1.5800 13454.0
1.5900 10602.0
1.6000 8218.0
1.6100 6879.0
1.6200 6700.0
1.6300 7567.0
1.6400 9368.0
1.6500 11129.0
1.6600 12245.0
1.6700 12858.0
1.6800 12299.0
1.6900 10722.0
1.7000 8882.0
1.7100 6796.0
1.7200 4966.0
1.7300 4120.0
1.7400 4088.0
1.7500 4769.0
1.7600 6297.0
1.7700 7670.0
1.7800 8792.0
1.7900 9141.0
1.8000 8754.0
1.8100 7954.0
1.8200 6377.0
1.8300 4791.0
1.8400 3514.0
1.8500 2732.0
1.8600 2488.0
1.8700 3017.0
1.8800 3991.0
1.8900 5032.0
1.9000 6215.0
1.9100 6598.0
1.9200 6534.0
1.9300 5944.0
1.9400 4975.0
1.9500 3766.0
1.9600 2676.0
1.9700 1886.0
1.9800 1603.0
1.9900 1903.0
2.0000 2489.0
2.0100 3428.0
2.0200 4156.0
2.0300 4806.0
2.0400 4878.0
2.0500 4699.0
2.0600 4071.0
2.0700 3220.0
2.0800 2304.0
2.0900 1653.0
2.1000 1269.0
2.1100 1191.0
2.1200 1546.0
2.1300 1999.0
2.1400 2600.0
2.1500 3248.0
2.1600 3576.0
2.1700 3578.0
2.1800 3375.0
2.1900 2809.0
2.2000 2213.0
2.2100 1614.0
2.2200 1110.0
2.2300 913.0
2.2400 877.0
2.2500 1138.0
2.2600 1578.0
2.2700 2057.0
2.2800 2360.0
2.2900 2543.0
2.3000 2650.0
2.3100 2423.0
2.3200 1964.0
2.3300 1553.0
2.3400 1088.0
2.3500 841.0
2.3600 678.0
2.3700 732.0
2.3800 880.0
2.3900 1131.0
2.4000 1378.0
2.4100 1641.0
2.4200 1785.0
2.4300 1775.0
2.4400 1774.0
2.4500 1405.0
2.4600 1167.0
2.4700 827.0
2.4800 688.0
2.4900 537.0
2.5000 566.0
2.5100 580.0
2.5200 831.0
2.5300 1048.0
2.5400 1118.0
2.5500 1221.0
2.5600 1317.0
2.5700 1235.0
2.5800 1018.0
2.5900 912.0
2.6000 720.0
2.6100 568.0
2.6200 459.0
2.6300 455.0
2.6400 505.0
2.6500 549.0
2.6600 690.0
2.6700 793.0
2.6800 884.0
2.6900 890.0
2.7000 914.0
2.7100 833.0
2.7200 728.0
2.7300 558.0
2.7400 471.0
2.7500 387.0
2.7600 341.0
2.7700 409.0
2.7800 422.0
2.7900 459.0
2.8000 568.0
2.8100 609.0
2.8200 663.0
2.8300 712.0
2.8400 578.0
2.8500 503.0
2.8600 474.0
2.8700 389.0
2.8800 315.0
2.8900 277.0
2.9000 288.0
2.9100 339.0
2.9200 334.0
2.9300 393.0
2.9400 440.0
2.9500 462.0
2.9600 442.0
2.9700 455.0
2.9800 440.0
2.9900 376.0
3.0000 322.0
3.0100 278.0
3.0200 242.0
3.0300 230.0
3.0400 245.0
3.0500 258.0
3.0600 275.0
3.0700 309.0
3.0800 308.0
3.0900 338.0
3.1000 323.0
3.1100 328.0
3.1200 337.0
3.1300 261.0
3.1400 243.0
3.1500 238.0
3.1600 204.0
3.1700 206.0
3.1800 187.0
3.1900 189.0
3.2000 225.0
3.2100 226.0
3.2200 238.0
3.2300 257.0
3.2400 248.0
3.2500 194.0
3.2600 226.0
3.2700 188.0
3.2800 207.0
3.2900 207.0
3.3000 178.0
3.3100 144.0
3.3200 160.0
3.3300 155.0
3.3400 181.0
3.3500 168.0
3.3600 195.0
3.3700 185.0
3.3800 180.0
3.3900 185.0
3.4000 176.0
3.4100 149.0
3.4200 140.0
3.4300 135.0
3.4400 130.0
3.4500 157.0
3.4600 139.0
3.4700 132.0
3.4800 138.0
3.4900 149.0
3.5000 146.0
3.5100 173.0
3.5200 167.0
3.5300 141.0
3.5400 137.0
3.5500 119.0
3.5600 107.0
3.5700 111.0
3.5800 126.0
3.5900 88.0
3.6000 120.0
3.6100 99.0
3.6200 101.0
3.6300 117.0
3.6400 143.0
3.6500 105.0
3.6600 126.0
3.6700 115.0
3.6800 90.0
3.6900 102.0
3.7000 76.0
3.7100 101.0
3.7200 106.0
3.7300 85.0
3.7400 82.0
3.7500 85.0
3.7600 96.0
3.7700 97.0
3.7800 112.0
3.7900 78.0
3.8000 89.0
3.8100 74.0
3.8200 87.0
3.8300 88.0
3.8400 81.0
3.8500 78.0
3.8600 65.0
3.8700 72.0
3.8800 72.0
3.8900 65.0
3.9000 75.0
3.9100 73.0
3.9200 67.0
3.9300 75.0
3.9400 88.0
3.9500 78.0
3.9600 75.0
3.9700 64.0
3.9800 58.0
3.9900 69.0
4.0000 60.0
4.0100 65.0
4.0200 50.0
4.0300 70.0
4.0400 40.0
4.0500 63.0
4.0600 68.0
4.0700 68.0
4.0800 62.0
4.0900 67.0
4.1000 49.0
4.1100 48.0
4.1200 52.0
4.1300 64.0
4.1400 56.0
4.1500 52.0
4.1600 55.0
4.1700 52.0
4.1800 51.0
4.1900 62.0
4.2000 43.0
4.2100 64.0
4.2200 63.0
4.2300 54.0
4.2400 43.0
4.2500 55.0
4.2600 59.0
4.2700 56.0
4.2800 43.0
4.2900 42.0
4.3000 55.0
4.3100 52.0
4.3200 53.0
4.3300 48.0
4.3400 47.0
4.3500 50.0
4.3600 38.0
4.3700 46.0
4.3800 48.0
4.3900 32.0
4.4000 40.0
4.4100 37.0
4.4200 39.0
4.4300 43.0
4.4400 51.0
4.4500 38.0
4.4600 37.0
4.4700 39.0
4.4800 40.0
4.4900 34.0
4.5000 30.0
4.5100 41.0
4.5200 31.0
4.5300 37.0
4.5400 33.0
4.5500 38.0
4.5600 28.0
4.5700 31.0
4.5800 42.0
4.5900 29.0
4.6000 41.0
4.6100 37.0
4.6200 31.0
4.6300 30.0
4.6400 37.0
4.6500 27.0
4.6600 34.0
4.6700 33.0
4.6800 26.0
4.6900 33.0
4.7000 27.0
4.7100 26.0
4.7200 26.0
4.7300 28.0
4.7400 31.0
4.7500 32.0
4.7600 20.0
4.7700 27.0
4.7800 36.0
4.7900 25.0
4.8000 22.0
4.8100 24.0
4.8200 21.0
4.8300 17.0
4.8400 29.0
4.8500 25.0
4.8600 22.0
4.8700 25.0
4.8800 26.0
4.8900 25.0
4.9000 26.0
4.9100 13.0
4.9200 27.0
4.9300 19.0
4.9400 18.0
4.9500 18.0
4.9600 22.0
4.9700 24.0
4.9800 15.0
4.9900 21.0
