0.0100 8022518.0
0.0200 9501670.0
0.0300 8444247.0
0.0400 6131529.0
0.0500 3272755.0
0.0600 1291174.0
0.0700 419346.0
0.0800 191634.0
0.0900 150403.0
0.1000 146293.0
0.1100 153623.0
0.1200 164187.0
0.1300 178339.0
0.1400 192493.0
0.1500 207477.0
0.1600 222782.0
0.1700 237988.0
0.1800 254165.0
0.1900 269120.0
0.2000 285733.0
0.2100 299910.0
0.2200 316108.0
0.2300 331224.0
0.2400 346306.0
0.2500 363392.0
0.2600 376365.0
0.2700 392035.0
0.2800 408079.0
0.2900 421236.0
0.3000 435710.0
0.3100 449569.0
0.3200 465247.0
0.3300 478825.0
0.3400 423398.0
0.3500 433173.0
0.3600 459754.0
0.3700 478707.0
0.3800 479422.0
0.3900 480614.0
0.4000 496468.0
0.4100 510295.0
0.4200 524242.0
0.4300 534135.0
0.4400 548797.0
0.4500 548201.0
0.4600 564174.0
0.4700 570372.0
0.4800 576332.0
0.4900 598503.0
0.5000 590994.0
0.5100 622462.0
0.5200 621151.0
0.5300 632237.0
0.5400 641058.0
0.5500 658103.0
0.5600 660845.0
0.5700 687307.0
0.5800 675506.0
0.5900 700777.0
0.6000 698512.0
0.6100 711386.0
0.6200 731650.0
0.6300 716154.0
0.6400 708644.0
0.6500 730458.0
0.6600 717822.0
0.6700 745715.0
0.6800 750722.0
0.6900 741066.0
0.7000 769913.0
0.7100 767171.0
0.7200 769555.0
0.7300 776588.0
0.7400 761807.0
0.7500 792799.0
0.7600 763238.0
0.7700 766694.0
0.7800 764668.0
0.7900 762046.0
0.8000 761688.0
0.8100 747503.0
0.8200 764430.0
0.8300 763595.0
0.8400 736656.0
0.8500 727478.0
0.8600 713531.0
0.8700 712578.0
0.8800 675387.0
0.8900 649044.0
0.9000 605059.0
0.9100 569418.0
0.9200 533420.0
0.9300 461066.0
0.9400 417915.0
0.9500 378222.0
0.9600 310158.0
0.9700 266054.0
0.9800 229341.0
0.9900 208481.0
1.0000 209873.0
1.0100 182856.0
1.0200 160040.0
1.0300 143660.0
1.0400 131054.0
1.0500 119186.0
1.0600 107687.0
1.0700 94992.0
1.0800 83734.0
1.0900 75831.0
1.1000 72809.0
1.1100 71387.0
1.1200 68145.0
1.1300 63222.0
1.1400 54811.0
1.1500 46687.0
1.1600 41512.0
1.1700 39803.0
1.1800 41219.0
1.1900 42923.0
1.2000 42743.0
1.2100 40365.0
1.2200 34926.0
1.2300 28722.0
1.2400 24037.0
1.2500 22122.0
1.2600 23109.0
1.2700 25806.0
1.2800 27956.0
1.2900 28530.0
1.3000 27115.0
1.3100 22911.0
1.3200 18379.0
1.3300 14652.0
1.3400 12729.0
1.3500 13349.0
1.3600 15731.0
1.3700 18390.0
1.3800 20053.0
1.3900 20259.0
1.4000 18559.0
1.4100 15054.0
1.4200 11549.0
1.4300 8873.0
1.4400 7419.0
1.4500 8084.0
1.4600 9949.0
1.4700 12324.0
1.4800 14151.0
1.4900 14847.0
1.5000 13909.0
1.5100 12028.0
1.5200 9018.0
1.5300 6533.0
1.5400 5005.0
1.5500 4557.0
1.5600 5344.0
1.5700 7009.0
1.5800 9001.0
1.5900 10710.0
1.6000 10955.0
1.6100 10134.0
1.6200 8445.0
1.6300 6391.0
1.6400 4446.0
1.6500 3151.0
1.6600 2815.0
1.6700 3510.0
1.6800 4837.0
1.6900 6376.0
1.7000 7873.0
1.7100 8232.0
1.7200 8005.0
1.7300 6916.0
1.7400 5220.0
1.7500 3573.0
1.7600 2301.0
1.7700 1895.0
1.7800 2083.0
1.7900 3043.0
1.8000 4281.0
1.8100 5668.0
1.8200 6417.0
1.8300 6539.0
1.8400 5943.0
1.8500 4857.0
1.8600 3269.0
1.8700 2142.0
1.8800 1393.0
1.8900 1276.0
1.9000 1784.0
1.9100 2828.0
1.9200 3753.0
1.9300 4819.0
1.9400 5344.0
1.9500 5200.0
1.9600 4591.0
1.9700 3583.0
1.9800 2410.0
1.9900 1557.0
2.0000 947.0
2.0100 935.0
2.0200 1348.0
2.0300 2028.0
2.0400 2957.0
2.0500 3599.0
2.0600 4135.0
2.0700 3940.0
2.0800 3643.0
2.0900 2897.0
2.1000 1952.0
2.1100 1171.0
2.1200 695.0
2.1300 619.0
2.1400 809.0
2.1500 1402.0
2.1600 2074.0
2.1700 2574.0
2.1800 3038.0
2.1900 2996.0
2.2000 2865.0
2.2100 2287.0
2.2200 1701.0
2.2300 1080.0
2.2400 614.0
2.2500 398.0
2.2600 502.0
2.2700 905.0
2.2800 1429.0
2.2900 1850.0
2.3000 2334.0
2.3100 2458.0
2.3200 2349.0
2.3300 2015.0
2.3400 1438.0
2.3500 959.0
2.3600 527.0
2.3700 355.0
2.3800 370.0
2.3900 601.0
2.4000 986.0
2.4100 1446.0
2.4200 1791.0
2.4300 1973.0
2.4400 1982.0
2.4500 1724.0
2.4600 1315.0
2.4700 914.0
2.4800 598.0
2.4900 374.0
2.5000 258.0
2.5100 360.0
2.5200 552.0
2.5300 884.0
2.5400 1123.0
2.5500 1379.0
2.5600 1516.0
2.5700 1473.0
2.5800 1254.0
2.5900 946.0
2.6000 621.0
2.6100 368.0
2.6200 231.0
2.6300 222.0
2.6400 314.0
2.6500 520.0
2.6600 729.0
2.6700 1010.0
2.6800 1102.0
2.6900 1173.0
2.7000 1082.0
2.7100 843.0
2.7200 667.0
2.7300 460.0
2.7400 282.0
2.7500 172.0
2.7600 196.0
2.7700 305.0
2.7800 458.0
2.7900 690.0
2.8000 829.0
2.8100 913.0
2.8200 942.0
2.8300 873.0
2.8400 752.0
2.8500 522.0
2.8600 383.0
2.8700 210.0
2.8800 193.0
2.8900 186.0
2.9000 307.0
2.9100 470.0
2.9200 596.0
2.9300 734.0
2.9400 797.0
2.9500 825.0
2.9600 748.0
2.9700 615.0
2.9800 431.0
2.9900 271.0
3.0000 202.0
3.0100 138.0
3.0200 183.0
3.0300 267.0
3.0400 378.0
3.0500 513.0
3.0600 577.0
3.0700 642.0
3.0800 572.0
3.0900 584.0
3.1000 441.0
3.1100 365.0
3.1200 261.0
3.1300 178.0
3.1400 147.0
3.1500 156.0
3.1600 227.0
3.1700 294.0
3.1800 388.0
3.1900 442.0
3.2000 497.0
3.2100 484.0
3.2200 415.0
3.2300 370.0
3.2400 285.0
3.2500 237.0
3.2600 152.0
3.2700 127.0
3.2800 139.0
3.2900 178.0
3.3000 240.0
3.3100 313.0
3.3200 380.0
3.3300 439.0
3.3400 414.0
3.3500 380.0
3.3600 328.0
3.3700 253.0
3.3800 177.0
3.3900 155.0
3.4000 107.0
3.4100 125.0
3.4200 190.0
3.4300 221.0
3.4400 279.0
3.4500 332.0
3.4600 348.0
3.4700 336.0
3.4800 309.0
3.4900 286.0
3.5000 216.0
3.5100 184.0
3.5200 121.0
3.5300 128.0
3.5400 106.0
3.5500 128.0
3.5600 192.0
3.5700 205.0
3.5800 269.0
3.5900 283.0
3.6000 290.0
3.6100 259.0
3.6200 259.0
3.6300 197.0
3.6400 151.0
3.6500 129.0
3.6600 116.0
3.6700 111.0
3.6800 118.0
3.6900 150.0
3.7000 175.0
3.7100 191.0
3.7200 229.0
3.7300 257.0
3.7400 244.0
3.7500 211.0
3.7600 183.0
3.7700 138.0
3.7800 123.0
3.7900 99.0
3.8000 118.0
3.8100 106.0
3.8200 142.0
3.8300 152.0
3.8400 186.0
3.8500 224.0
3.8600 245.0
3.8700 207.0
3.8800 181.0
3.8900 182.0
3.9000 164.0
3.9100 128.0
3.9200 108.0
3.9300 96.0
3.9400 88.0
3.9500 133.0
3.9600 154.0
3.9700 160.0
3.9800 165.0
3.9900 195.0
4.0000 194.0
4.0100 189.0
4.0200 170.0
4.0300 142.0
4.0400 108.0
4.0500 95.0
4.0600 91.0
4.0700 87.0
4.0800 91.0
4.0900 136.0
4.1000 128.0
4.1100 159.0
4.1200 153.0
4.1300 147.0
4.1400 166.0
4.1500 122.0
4.1600 118.0
4.1700 99.0
4.1800 93.0
4.1900 85.0
4.2000 77.0
4.2100 80.0
4.2200 111.0
4.2300 94.0
4.2400 118.0
4.2500 141.0
4.2600 113.0
4.2700 135.0
4.2800 107.0
4.2900 111.0
4.3000 89.0
4.3100 79.0
4.3200 54.0
4.3300 63.0
4.3400 76.0
4.3500 80.0
4.3600 107.0
4.3700 105.0
4.3800 141.0
4.3900 113.0
4.4000 120.0
4.4100 125.0
4.4200 96.0
4.4300 109.0
4.4400 90.0
4.4500 58.0
4.4600 61.0
4.4700 54.0
4.4800 58.0
4.4900 91.0
4.5000 75.0
4.5100 100.0
4.5200 101.0
4.5300 86.0
4.5400 84.0
4.5500 87.0
4.5600 71.0
4.5700 59.0
4.5800 54.0
4.5900 54.0
4.6000 60.0
4.6100 60.0
4.6200 73.0
4.6300 70.0
4.6400 108.0
4.6500 68.0
4.6600 89.0
4.6700 68.0
4.6800 85.0
4.6900 67.0
4.7000 57.0
4.7100 60.0
4.7200 54.0
4.7300 46.0
4.7400 65.0
4.7500 53.0
4.7600 43.0
4.7700 53.0
4.7800 71.0
4.7900 73.0
4.8000 60.0
4.8100 71.0
4.8200 56.0
4.8300 64.0
4.8400 48.0
4.8500 53.0
4.8600 52.0
4.8700 54.0
4.8800 54.0
4.8900 59.0
4.9000 66.0
4.9100 72.0
4.9200 68.0
4.9300 71.0
4.9400 71.0
4.9500 52.0
4.9600 59.0
4.9700 68.0
4.9800 45.0
4.9900 46.0
