35.0200 4.0
35.0400 7.0
35.0600 10.0
35.0800 4.0
35.1000 5.0
35.1200 7.0
35.1400 8.0
35.1600 7.0
35.1800 5.0
35.2000 6.0
35.2200 4.0
35.2400 3.0
35.2600 11.0
35.2800 5.0
35.3000 7.0
35.3200 8.0
35.3400 9.0
35.3600 5.0
35.3800 9.0
35.4000 3.0
35.4200 7.0
35.4400 8.0
35.4600 12.0
35.4800 6.0
35.5000 11.0
35.5200 12.0
35.5400 8.0
35.5600 10.0
35.5800 14.0
35.6000 8.0
35.6200 17.0
35.6400 12.0
35.6600 19.0
35.6800 15.0
35.7000 16.0
35.7200 8.0
35.7400 13.0
35.7600 15.0
35.7800 11.0
35.8000 6.0
35.8200 10.0
35.8400 8.0
35.8600 9.0
35.8800 2.0
35.9000 7.0
35.9200 9.0
35.9400 10.0
35.9600 11.0
35.9800 6.0
36.0000 8.0
36.0200 9.0
36.0400 7.0
36.0600 8.0
36.0800 6.0
36.1000 5.0
36.1200 13.0
36.1400 11.0
36.1600 8.0
36.1800 6.0
36.2000 6.0
36.2200 6.0
36.2400 8.0
36.2600 9.0
36.2800 4.0
36.3000 5.0
36.3200 8.0
36.3400 7.0
36.3600 7.0
36.3800 2.0
36.4000 8.0
36.4200 4.0
36.4400 8.0
36.4600 9.0
36.4800 13.0
36.5000 7.0
36.5200 5.0
36.5400 4.0
36.5600 7.0
36.5800 8.0
36.6000 8.0
36.6200 9.0
36.6400 8.0
36.6600 9.0
36.6800 10.0
36.7000 9.0
36.7200 7.0
36.7400 6.0
36.7600 7.0
36.7800 8.0
36.8000 4.0
36.8200 5.0
36.8400 6.0
36.8600 10.0
36.8800 11.0
36.9000 7.0
36.9200 10.0
36.9400 6.0
36.9600 10.0
36.9800 8.0
37.0000 4.0
37.0200 6.0
37.0400 6.0
37.0600 9.0
37.0800 7.0
37.1000 7.0
37.1200 12.0
37.1400 6.0
37.1600 8.0
37.1800 9.0
37.2000 12.0
37.2200 7.0
37.2400 6.0
37.2600 10.0
37.2800 7.0
37.3000 8.0
37.3200 8.0
37.3400 10.0
37.3600 8.0
37.3800 11.0
37.4000 9.0
37.4200 12.0
37.4400 9.0
37.4600 9.0
37.4800 10.0
37.5000 5.0
37.5200 8.0
37.5400 11.0
37.5600 6.0
37.5800 7.0
37.6000 13.0
37.6200 9.0
37.6400 6.0
37.6600 6.0
37.6800 9.0
37.7000 16.0
37.7200 7.0
37.7400 7.0
37.7600 6.0
37.7800 7.0
37.8000 11.0
37.8200 4.0
37.8400 7.0
37.8600 10.0
37.8800 11.0
37.9000 7.0
37.9200 12.0
37.9400 5.0
37.9600 10.0
37.9800 6.0
38.0000 8.0
38.0200 14.0
38.0400 6.0
38.0600 10.0
38.0800 11.0
38.1000 9.0
38.1200 7.0
38.1400 14.0
38.1600 16.0
38.1800 7.0
38.2000 6.0
38.2200 9.0
38.2400 8.0
38.2600 12.0
38.2800 8.0
38.3000 9.0
38.3200 8.0
38.3400 11.0
38.3600 11.0
38.3800 9.0
38.4000 9.0
38.4200 13.0
38.4400 9.0
38.4600 14.0
38.4800 6.0
38.5000 5.0
38.5200 11.0
38.5400 14.0
38.5600 14.0
38.5800 7.0
38.6000 8.0
38.6200 14.0
38.6400 13.0
38.6600 6.0
38.6800 11.0
38.7000 13.0
38.7200 7.0
38.7400 12.0
38.7600 14.0
38.7800 16.0
38.8000 12.0
38.8200 15.0
38.8400 10.0
38.8600 13.0
38.8800 10.0
38.9000 9.0
38.9200 6.0
38.9400 10.0
38.9600 9.0
38.9800 8.0
39.0000 9.0
39.0200 16.0
39.0400 7.0
39.0600 11.0
39.0800 9.0
39.1000 15.0
39.1200 11.0
39.1400 11.0
39.1600 13.0
39.1800 9.0
39.2000 12.0
39.2200 11.0
39.2400 23.0
39.2600 13.0
39.2800 13.0
39.3000 16.0
39.3200 12.0
39.3400 5.0
39.3600 11.0
39.3800 14.0
39.4000 12.0
39.4200 9.0
39.4400 15.0
39.4600 10.0
39.4800 10.0
39.5000 10.0
39.5200 7.0
39.5400 7.0
39.5600 12.0
39.5800 8.0
39.6000 19.0
39.6200 13.0
39.6400 18.0
39.6600 8.0
39.6800 16.0
39.7000 5.0
39.7200 14.0
39.7400 16.0
39.7600 14.0
39.7800 10.0
39.8000 11.0
39.8200 19.0
39.8400 14.0
39.8600 16.0
39.8800 22.0
39.9000 7.0
39.9200 12.0
39.9400 19.0
39.9600 14.0
39.9800 11.0
40.0000 16.0
40.0200 13.0
40.0400 17.0
40.0600 19.0
40.0800 19.0
40.1000 18.0
40.1200 16.0
40.1400 16.0
40.1600 19.0
40.1800 20.0
40.2000 15.0
40.2200 18.0
40.2400 17.0
40.2600 17.0
40.2800 13.0
40.3000 14.0
40.3200 15.0
40.3400 12.0
40.3600 19.0
40.3800 25.0
40.4000 18.0
40.4200 21.0
40.4400 24.0
40.4600 24.0
40.4800 24.0
40.5000 21.0
40.5200 16.0
40.5400 22.0
40.5600 22.0
40.5800 18.0
40.6000 18.0
40.6200 18.0
40.6400 22.0
40.6600 18.0
40.6800 21.0
40.7000 21.0
40.7200 19.0
40.7400 24.0
40.7600 23.0
40.7800 21.0
40.8000 22.0
40.8200 25.0
40.8400 30.0
40.8600 22.0
40.8800 23.0
40.9000 26.0
40.9200 29.0
40.9400 32.0
40.9600 26.0
40.9800 32.0
41.0000 25.0
41.0200 23.0
41.0400 24.0
41.0600 31.0
41.0800 26.0
41.1000 35.0
41.1200 29.0
41.1400 24.0
41.1600 25.0
41.1800 28.0
41.2000 24.0
41.2200 26.0
41.2400 24.0
41.2600 37.0
41.2800 38.0
41.3000 38.0
41.3200 22.0
41.3400 41.0
41.3600 42.0
41.3800 32.0
41.4000 29.0
41.4200 33.0
41.4400 41.0
41.4600 41.0
41.4800 37.0
41.5000 36.0
41.5200 30.0
41.5400 47.0
41.5600 41.0
41.5800 40.0
41.6000 45.0
41.6200 39.0
41.6400 45.0
41.6600 44.0
41.6800 52.0
41.7000 39.0
41.7200 59.0
41.7400 39.0
41.7600 58.0
41.7800 44.0
41.8000 48.0
41.8200 54.0
41.8400 56.0
41.8600 49.0
41.8800 62.0
41.9000 64.0
41.9200 54.0
41.9400 75.0
41.9600 67.0
41.9800 67.0
42.0000 72.0
42.0200 76.0
42.0400 64.0
42.0600 83.0
42.0800 83.0
42.1000 90.0
42.1200 109.0
42.1400 100.0
42.1600 98.0
42.1800 84.0
42.2000 110.0
42.2200 120.0
42.2400 105.0
42.2600 126.0
42.2800 124.0
42.3000 169.0
42.3200 147.0
42.3400 131.0
42.3600 202.0
42.3800 198.0
42.4000 212.0
42.4200 224.0
42.4400 282.0
42.4600 317.0
42.4800 351.0
42.5000 435.0
42.5200 512.0
42.5400 661.0
42.5600 987.0
42.5800 1499.0
42.6000 2604.0
42.6200 10715.0
42.6400 129804.0
42.6600 325449.0
42.6800 84793.0
42.7000 374527.0
42.7200 320092.0
42.7400 139664.0
42.7600 64984.0
42.7800 38621.0
42.8000 25713.0
42.8200 22177.0
42.8400 21935.0
42.8600 20749.0
42.8800 17498.0
42.9000 13942.0
42.9200 11390.0
42.9400 10515.0
42.9600 9359.0
42.9800 7797.0
43.0000 5368.0
43.0200 3435.0
43.0400 2622.0
43.0600 2652.0
43.0800 2640.0
43.1000 2125.0
43.1200 1143.0
43.1400 702.0
43.1600 478.0
43.1800 388.0
43.2000 359.0
43.2200 299.0
43.2400 234.0
43.2600 228.0
43.2800 200.0
43.3000 204.0
43.3200 195.0
43.3400 170.0
43.3600 148.0
43.3800 133.0
43.4000 146.0
43.4200 126.0
43.4400 104.0
43.4600 136.0
43.4800 114.0
43.5000 111.0
43.5200 95.0
43.5400 95.0
43.5600 98.0
43.5800 103.0
43.6000 92.0
43.6200 74.0
43.6400 60.0
43.6600 91.0
43.6800 73.0
43.7000 70.0
43.7200 67.0
43.7400 51.0
43.7600 79.0
43.7800 62.0
43.8000 60.0
43.8200 70.0
43.8400 59.0
43.8600 81.0
43.8800 55.0
43.9000 55.0
43.9200 48.0
43.9400 55.0
43.9600 44.0
43.9800 56.0
44.0000 38.0
44.0200 55.0
44.0400 50.0
44.0600 55.0
44.0800 38.0
44.1000 47.0
44.1200 51.0
44.1400 37.0
44.1600 37.0
44.1800 53.0
44.2000 57.0
44.2200 49.0
44.2400 53.0
44.2600 45.0
44.2800 52.0
44.3000 50.0
44.3200 42.0
44.3400 40.0
44.3600 50.0
44.3800 49.0
44.4000 41.0
44.4200 40.0
44.4400 50.0
44.4600 60.0
44.4800 36.0
44.5000 60.0
44.5200 55.0
44.5400 47.0
44.5600 41.0
44.5800 60.0
44.6000 53.0
44.6200 46.0
44.6400 47.0
44.6600 49.0
44.6800 43.0
44.7000 54.0
44.7200 52.0
44.7400 45.0
44.7600 51.0
44.7800 55.0
44.8000 63.0
44.8200 63.0
44.8400 64.0
44.8600 61.0
44.8800 64.0
44.9000 53.0
44.9200 62.0
44.9400 73.0
44.9600 63.0
44.9800 60.0
45.0000 58.0
45.0200 64.0
45.0400 60.0
45.0600 66.0
45.0800 69.0
45.1000 74.0
45.1200 79.0
45.1400 57.0
45.1600 73.0
45.1800 59.0
45.2000 68.0
45.2200 66.0
45.2400 72.0
45.2600 69.0
45.2800 75.0
45.3000 97.0
45.3200 94.0
45.3400 91.0
45.3600 98.0
45.3800 91.0
45.4000 99.0
45.4200 96.0
45.4400 108.0
45.4600 110.0
45.4800 116.0
45.5000 90.0
45.5200 109.0
45.5400 112.0
45.5600 114.0
45.5800 153.0
45.6000 149.0
45.6200 108.0
45.6400 122.0
45.6600 134.0
45.6800 155.0
45.7000 158.0
45.7200 180.0
45.7400 180.0
45.7600 166.0
45.7800 187.0
45.8000 184.0
45.8200 194.0
45.8400 204.0
45.8600 244.0
45.8800 251.0
45.9000 242.0
45.9200 294.0
45.9400 328.0
45.9600 330.0
45.9800 348.0
46.0000 371.0
46.0200 371.0
46.0400 402.0
46.0600 439.0
46.0800 538.0
46.1000 540.0
46.1200 616.0
46.1400 697.0
46.1600 862.0
46.1800 931.0
46.2000 1089.0
46.2200 1231.0
46.2400 1530.0
46.2600 1775.0
46.2800 2062.0
46.3000 2624.0
46.3200 3242.0
46.3400 4007.0
46.3600 4983.0
46.3800 6030.0
46.4000 7320.0
46.4200 8926.0
46.4400 10536.0
46.4600 12250.0
46.4800 14323.0
46.5000 16189.0
46.5200 18406.0
46.5400 20338.0
46.5600 22429.0
46.5800 24197.0
46.6000 25601.0
46.6200 26674.0
46.6400 27655.0
46.6600 28164.0
46.6800 28703.0
46.7000 28458.0
46.7200 27609.0
46.7400 26726.0
46.7600 25566.0
46.7800 23667.0
46.8000 22142.0
46.8200 20261.0
46.8400 18314.0
46.8600 15948.0
46.8800 13922.0
46.9000 12311.0
46.9200 10479.0
46.9400 8764.0
46.9600 7351.0
46.9800 6144.0
47.0000 4984.0
47.0200 4175.0
47.0400 3330.0
47.0600 2717.0
47.0800 2155.0
47.1000 1838.0
47.1200 1443.0
47.1400 1236.0
47.1600 1060.0
47.1800 792.0
47.2000 747.0
47.2200 630.0
47.2400 531.0
47.2600 505.0
47.2800 472.0
47.3000 386.0
47.3200 368.0
47.3400 330.0
47.3600 314.0
47.3800 260.0
47.4000 248.0
47.4200 220.0
47.4400 230.0
47.4600 216.0
47.4800 175.0
47.5000 169.0
47.5200 144.0
47.5400 150.0
47.5600 169.0
47.5800 162.0
47.6000 115.0
47.6200 135.0
47.6400 114.0
47.6600 118.0
47.6800 104.0
47.7000 110.0
47.7200 81.0
47.7400 72.0
47.7600 91.0
47.7800 89.0
47.8000 95.0
47.8200 63.0
47.8400 75.0
47.8600 76.0
47.8800 73.0
47.9000 63.0
47.9200 65.0
47.9400 58.0
47.9600 65.0
47.9800 62.0
48.0000 39.0
48.0200 57.0
48.0400 44.0
48.0600 55.0
48.0800 50.0
48.1000 45.0
48.1200 46.0
48.1400 46.0
48.1600 49.0
48.1800 42.0
48.2000 31.0
48.2200 47.0
48.2400 37.0
48.2600 40.0
48.2800 23.0
48.3000 36.0
48.3200 36.0
48.3400 25.0
48.3600 28.0
48.3800 40.0
48.4000 40.0
48.4200 31.0
48.4400 38.0
48.4600 31.0
48.4800 31.0
48.5000 35.0
48.5200 25.0
48.5400 22.0
48.5600 24.0
48.5800 23.0
48.6000 25.0
48.6200 25.0
48.6400 20.0
48.6600 27.0
48.6800 25.0
48.7000 18.0
48.7200 28.0
48.7400 31.0
48.7600 17.0
48.7800 24.0
48.8000 13.0
48.8200 23.0
48.8400 22.0
48.8600 21.0
48.8800 14.0
48.9000 26.0
48.9200 11.0
48.9400 17.0
48.9600 19.0
48.9800 14.0
49.0000 14.0
49.0200 22.0
49.0400 14.0
49.0600 22.0
49.0800 9.0
49.1000 8.0
49.1200 15.0
49.1400 8.0
49.1600 9.0
49.1800 11.0
49.2000 15.0
49.2200 21.0
49.2400 8.0
49.2600 15.0
49.2800 14.0
49.3000 12.0
49.3200 11.0
49.3400 11.0
49.3600 11.0
49.3800 17.0
49.4000 13.0
49.4200 7.0
49.4400 10.0
49.4600 10.0
49.4800 9.0
49.5000 12.0
49.5200 19.0
49.5400 13.0
49.5600 9.0
49.5800 18.0
49.6000 10.0
49.6200 14.0
49.6400 10.0
49.6600 10.0
49.6800 7.0
49.7000 12.0
49.7200 11.0
49.7400 10.0
49.7600 11.0
49.7800 7.0
49.8000 12.0
49.8200 15.0
49.8400 12.0
49.8600 5.0
49.8800 13.0
49.9000 3.0
49.9200 13.0
49.9400 9.0
49.9600 12.0
49.9800 5.0
50.0000 11.0
50.0200 13.0
50.0400 8.0
50.0600 7.0
50.0800 8.0
50.1000 4.0
50.1200 8.0
50.1400 8.0
50.1600 3.0
50.1800 9.0
50.2000 8.0
50.2200 5.0
50.2400 12.0
50.2600 8.0
50.2800 8.0
50.3000 10.0
50.3200 12.0
50.3400 8.0
50.3600 3.0
50.3800 6.0
50.4000 7.0
50.4200 4.0
50.4400 5.0
50.4600 7.0
50.4800 5.0
50.5000 5.0
50.5200 8.0
50.5400 4.0
50.5600 7.0
50.5800 7.0
50.6000 6.0
50.6200 10.0
50.6400 3.0
50.6600 6.0
50.6800 7.0
50.7000 8.0
50.7200 6.0
50.7400 4.0
50.7600 4.0
50.7800 4.0
50.8000 5.0
50.8200 10.0
50.8400 9.0
50.8600 5.0
50.8800 3.0
50.9000 4.0
50.9200 6.0
50.9400 6.0
50.9600 7.0
50.9800 4.0
51.0000 5.0
51.0200 7.0
51.0400 1.0
51.0600 6.0
51.0800 10.0
51.1000 6.0
51.1200 7.0
51.1400 7.0
51.1600 7.0
51.1800 1.0
51.2000 7.0
51.2200 3.0
51.2400 7.0
51.2600 5.0
51.2800 2.0
51.3000 4.0
51.3200 3.0
51.3400 5.0
51.3600 8.0
51.3800 8.0
51.4000 5.0
51.4200 3.0
51.4400 4.0
51.4600 3.0
51.4800 4.0
51.5000 8.0
51.5200 3.0
51.5400 9.0
51.5600 5.0
51.5800 3.0
51.6000 3.0
51.6200 7.0
51.6400 7.0
51.6600 2.0
51.6800 10.0
51.7000 5.0
51.7200 5.0
51.7400 2.0
51.7600 7.0
51.7800 5.0
51.8000 4.0
51.8200 0.0
51.8400 7.0
51.8600 4.0
51.8800 4.0
51.9000 6.0
51.9200 10.0
51.9400 10.0
51.9600 8.0
51.9800 7.0
52.0000 9.0
52.0200 6.0
52.0400 4.0
52.0600 7.0
52.0800 3.0
52.1000 7.0
52.1200 3.0
52.1400 3.0
52.1600 4.0
52.1800 1.0
52.2000 2.0
52.2200 6.0
52.2400 2.0
52.2600 6.0
52.2800 7.0
52.3000 3.0
52.3200 7.0
52.3400 7.0
52.3600 4.0
52.3800 6.0
52.4000 3.0
52.4200 3.0
52.4400 7.0
52.4600 2.0
52.4800 4.0
52.5000 4.0
52.5200 4.0
52.5400 6.0
52.5600 2.0
52.5800 6.0
52.6000 11.0
52.6200 2.0
52.6400 7.0
52.6600 5.0
52.6800 3.0
52.7000 5.0
52.7200 5.0
52.7400 7.0
52.7600 3.0
52.7800 5.0
52.8000 5.0
52.8200 2.0
52.8400 5.0
52.8600 4.0
52.8800 4.0
52.9000 2.0
52.9200 9.0
52.9400 4.0
52.9600 3.0
52.9800 5.0
53.0000 4.0
53.0200 6.0
53.0400 4.0
53.0600 9.0
53.0800 3.0
53.1000 5.0
53.1200 6.0
53.1400 6.0
53.1600 4.0
53.1800 2.0
53.2000 3.0
53.2200 6.0
53.2400 5.0
53.2600 7.0
53.2800 2.0
53.3000 6.0
53.3200 11.0
53.3400 9.0
53.3600 6.0
53.3800 7.0
53.4000 1.0
53.4200 4.0
53.4400 4.0
53.4600 2.0
53.4800 3.0
53.5000 6.0
53.5200 4.0
53.5400 10.0
53.5600 6.0
53.5800 4.0
53.6000 8.0
53.6200 5.0
53.6400 4.0
53.6600 2.0
53.6800 7.0
53.7000 1.0
53.7200 2.0
53.7400 4.0
53.7600 5.0
53.7800 3.0
53.8000 7.0
53.8200 0.0
53.8400 6.0
53.8600 4.0
53.8800 5.0
53.9000 4.0
53.9200 5.0
53.9400 2.0
53.9600 8.0
53.9800 7.0
54.0000 3.0
54.0200 1.0
54.0400 7.0
54.0600 0.0
54.0800 11.0
54.1000 4.0
54.1200 3.0
54.1400 3.0
54.1600 4.0
54.1800 2.0
54.2000 4.0
54.2200 6.0
54.2400 6.0
54.2600 4.0
54.2800 3.0
54.3000 0.0
54.3200 4.0
54.3400 5.0
54.3600 6.0
54.3800 2.0
54.4000 5.0
54.4200 3.0
54.4400 7.0
54.4600 2.0
54.4800 4.0
54.5000 2.0
54.5200 5.0
54.5400 3.0
54.5600 6.0
54.5800 1.0
54.6000 6.0
54.6200 2.0
54.6400 2.0
54.6600 4.0
54.6800 2.0
54.7000 5.0
54.7200 5.0
54.7400 5.0
54.7600 5.0
54.7800 6.0
54.8000 2.0
54.8200 4.0
54.8400 7.0
54.8600 2.0
54.8800 3.0
54.9000 4.0
54.9200 3.0
54.9400 3.0
54.9600 5.0
54.9800 5.0
55.0000 3.0
55.0200 3.0
55.0400 4.0
55.0600 4.0
55.0800 5.0
55.1000 5.0
55.1200 5.0
55.1400 4.0
55.1600 2.0
55.1800 4.0
55.2000 5.0
55.2200 2.0
55.2400 4.0
55.2600 7.0
55.2800 7.0
55.3000 4.0
55.3200 3.0
55.3400 4.0
55.3600 7.0
55.3800 3.0
55.4000 2.0
55.4200 2.0
55.4400 4.0
55.4600 4.0
55.4800 1.0
55.5000 2.0
55.5200 6.0
55.5400 5.0
55.5600 5.0
55.5800 3.0
55.6000 5.0
55.6200 4.0
55.6400 5.0
55.6600 6.0
55.6800 4.0
55.7000 4.0
55.7200 3.0
55.7400 4.0
55.7600 1.0
55.7800 8.0
55.8000 3.0
55.8200 2.0
55.8400 2.0
55.8600 7.0
55.8800 2.0
55.9000 2.0
55.9200 1.0
55.9400 1.0
55.9600 5.0
55.9800 2.0
56.0000 3.0
56.0200 4.0
56.0400 6.0
56.0600 4.0
56.0800 7.0
56.1000 1.0
56.1200 10.0
56.1400 4.0
56.1600 3.0
56.1800 5.0
56.2000 4.0
56.2200 6.0
56.2400 6.0
56.2600 0.0
56.2800 7.0
56.3000 5.0
56.3200 7.0
56.3400 2.0
56.3600 1.0
56.3800 2.0
56.4000 4.0
56.4200 3.0
56.4400 5.0
56.4600 5.0
56.4800 5.0
56.5000 5.0
56.5200 6.0
56.5400 4.0
56.5600 5.0
56.5800 4.0
56.6000 5.0
56.6200 6.0
56.6400 3.0
56.6600 7.0
56.6800 0.0
56.7000 7.0
56.7200 4.0
56.7400 2.0
56.7600 4.0
56.7800 3.0
56.8000 1.0
56.8200 5.0
56.8400 4.0
56.8600 6.0
56.8800 8.0
56.9000 1.0
56.9200 1.0
56.9400 3.0
56.9600 3.0
56.9800 6.0
57.0000 2.0
57.0200 3.0
57.0400 5.0
57.0600 2.0
57.0800 2.0
57.1000 1.0
57.1200 3.0
57.1400 6.0
57.1600 0.0
57.1800 6.0
57.2000 7.0
57.2200 8.0
57.2400 2.0
57.2600 6.0
57.2800 4.0
57.3000 3.0
57.3200 3.0
57.3400 5.0
57.3600 3.0
57.3800 5.0
57.4000 4.0
57.4200 5.0
57.4400 4.0
57.4600 1.0
57.4800 4.0
57.5000 6.0
57.5200 4.0
57.5400 3.0
57.5600 5.0
57.5800 3.0
57.6000 3.0
57.6200 3.0
57.6400 1.0
57.6600 6.0
57.6800 4.0
57.7000 3.0
57.7200 5.0
57.7400 2.0
57.7600 3.0
57.7800 4.0
57.8000 4.0
57.8200 4.0
57.8400 2.0
57.8600 1.0
57.8800 5.0
57.9000 7.0
57.9200 3.0
57.9400 5.0
57.9600 3.0
57.9800 4.0
58.0000 5.0
58.0200 2.0
58.0400 2.0
58.0600 6.0
58.0800 0.0
58.1000 7.0
58.1200 3.0
58.1400 1.0
58.1600 1.0
58.1800 2.0
58.2000 1.0
58.2200 4.0
58.2400 4.0
58.2600 2.0
58.2800 4.0
58.3000 3.0
58.3200 3.0
58.3400 7.0
58.3600 4.0
58.3800 1.0
58.4000 5.0
58.4200 6.0
58.4400 6.0
58.4600 0.0
58.4800 1.0
58.5000 7.0
58.5200 5.0
58.5400 5.0
58.5600 1.0
58.5800 3.0
58.6000 3.0
58.6200 3.0
58.6400 3.0
58.6600 3.0
58.6800 2.0
58.7000 3.0
58.7200 2.0
58.7400 1.0
58.7600 4.0
58.7800 4.0
58.8000 3.0
58.8200 6.0
58.8400 3.0
58.8600 3.0
58.8800 1.0
58.9000 5.0
58.9200 2.0
58.9400 0.0
58.9600 1.0
58.9800 2.0
59.0000 1.0
59.0200 4.0
59.0400 6.0
59.0600 2.0
59.0800 2.0
59.1000 1.0
59.1200 2.0
59.1400 4.0
59.1600 4.0
59.1800 1.0
59.2000 4.0
59.2200 2.0
59.2400 4.0
59.2600 2.0
59.2800 6.0
59.3000 3.0
59.3200 5.0
59.3400 5.0
59.3600 3.0
59.3800 5.0
59.4000 4.0
59.4200 2.0
59.4400 6.0
59.4600 3.0
59.4800 6.0
59.5000 3.0
59.5200 6.0
59.5400 3.0
59.5600 3.0
59.5800 5.0
59.6000 5.0
59.6200 3.0
59.6400 4.0
59.6600 7.0
59.6800 5.0
59.7000 2.0
59.7200 4.0
59.7400 2.0
59.7600 0.0
59.7800 7.0
59.8000 5.0
59.8200 8.0
59.8400 2.0
59.8600 3.0
59.8800 1.0
59.9000 3.0
59.9200 4.0
59.9400 5.0
59.9600 1.0
59.9800 2.0
60.0000 3.0
60.0200 3.0
60.0400 4.0
60.0600 2.0
60.0800 6.0
60.1000 3.0
60.1200 0.0
60.1400 3.0
60.1600 3.0
60.1800 3.0
60.2000 2.0
60.2200 1.0
60.2400 4.0
60.2600 4.0
60.2800 2.0
60.3000 2.0
60.3200 3.0
60.3400 4.0
60.3600 6.0
60.3800 3.0
60.4000 2.0
60.4200 3.0
60.4400 1.0
60.4600 0.0
60.4800 4.0
60.5000 5.0
60.5200 4.0
60.5400 4.0
60.5600 1.0
60.5800 2.0
60.6000 3.0
60.6200 7.0
60.6400 3.0
60.6600 5.0
60.6800 8.0
60.7000 2.0
60.7200 3.0
60.7400 4.0
60.7600 1.0
60.7800 6.0
60.8000 5.0
60.8200 3.0
60.8400 1.0
60.8600 2.0
60.8800 4.0
60.9000 4.0
60.9200 4.0
60.9400 3.0
60.9600 5.0
60.9800 3.0
61.0000 2.0
61.0200 1.0
61.0400 3.0
61.0600 2.0
61.0800 2.0
61.1000 4.0
61.1200 2.0
61.1400 3.0
61.1600 3.0
61.1800 2.0
61.2000 5.0
61.2200 3.0
61.2400 5.0
61.2600 2.0
61.2800 6.0
61.3000 1.0
61.3200 3.0
61.3400 3.0
61.3600 3.0
61.3800 2.0
61.4000 3.0
61.4200 4.0
61.4400 6.0
61.4600 2.0
61.4800 4.0
61.5000 0.0
61.5200 1.0
61.5400 0.0
61.5600 4.0
61.5800 8.0
61.6000 3.0
61.6200 4.0
61.6400 6.0
61.6600 4.0
61.6800 2.0
61.7000 4.0
61.7200 4.0
61.7400 4.0
61.7600 5.0
61.7800 5.0
61.8000 3.0
61.8200 4.0
61.8400 4.0
61.8600 4.0
61.8800 4.0
61.9000 4.0
61.9200 3.0
61.9400 0.0
61.9600 5.0
61.9800 3.0
62.0000 1.0
62.0200 3.0
62.0400 5.0
62.0600 5.0
62.0800 2.0
62.1000 3.0
62.1200 5.0
62.1400 1.0
62.1600 3.0
62.1800 1.0
62.2000 5.0
62.2200 2.0
62.2400 2.0
62.2600 4.0
62.2800 3.0
62.3000 5.0
62.3200 3.0
62.3400 4.0
62.3600 4.0
62.3800 3.0
62.4000 3.0
62.4200 5.0
62.4400 3.0
62.4600 1.0
62.4800 2.0
62.5000 3.0
62.5200 1.0
62.5400 7.0
62.5600 2.0
62.5800 7.0
62.6000 3.0
62.6200 4.0
62.6400 3.0
62.6600 1.0
62.6800 3.0
62.7000 3.0
62.7200 2.0
62.7400 3.0
62.7600 3.0
62.7800 5.0
62.8000 4.0
62.8200 4.0
62.8400 6.0
62.8600 3.0
62.8800 4.0
62.9000 5.0
62.9200 4.0
62.9400 3.0
62.9600 6.0
62.9800 1.0
63.0000 4.0
63.0200 3.0
63.0400 5.0
63.0600 2.0
63.0800 5.0
63.1000 4.0
63.1200 5.0
63.1400 2.0
63.1600 0.0
63.1800 3.0
63.2000 0.0
63.2200 4.0
63.2400 5.0
63.2600 1.0
63.2800 3.0
63.3000 2.0
63.3200 4.0
63.3400 3.0
63.3600 4.0
63.3800 1.0
63.4000 2.0
63.4200 2.0
63.4400 4.0
63.4600 4.0
63.4800 3.0
63.5000 6.0
63.5200 3.0
63.5400 7.0
63.5600 6.0
63.5800 1.0
63.6000 7.0
63.6200 3.0
63.6400 4.0
63.6600 3.0
63.6800 5.0
63.7000 5.0
63.7200 1.0
63.7400 4.0
63.7600 4.0
63.7800 6.0
63.8000 5.0
63.8200 6.0
63.8400 5.0
63.8600 1.0
63.8800 2.0
63.9000 1.0
63.9200 0.0
63.9400 0.0
63.9600 3.0
63.9800 1.0
64.0000 4.0
64.0200 4.0
64.0400 0.0
64.0600 1.0
64.0800 3.0
64.1000 4.0
64.1200 4.0
64.1400 2.0
64.1600 2.0
64.1800 2.0
64.2000 2.0
64.2200 1.0
64.2400 3.0
64.2600 3.0
64.2800 2.0
64.3000 7.0
64.3200 2.0
64.3400 3.0
64.3600 1.0
64.3800 3.0
64.4000 3.0
64.4200 2.0
64.4400 2.0
64.4600 3.0
64.4800 3.0
64.5000 3.0
64.5200 3.0
64.5400 6.0
64.5600 4.0
64.5800 5.0
64.6000 1.0
64.6200 2.0
64.6400 1.0
64.6600 0.0
64.6800 4.0
64.7000 7.0
64.7200 2.0
64.7400 1.0
64.7600 3.0
64.7800 2.0
64.8000 4.0
64.8200 2.0
64.8400 0.0
64.8600 2.0
64.8800 2.0
64.9000 2.0
64.9200 2.0
64.9400 0.0
64.9600 3.0
64.9800 2.0
65.0000 3.0
65.0200 3.0
65.0400 0.0
65.0600 3.0
65.0800 4.0
65.1000 2.0
65.1200 4.0
65.1400 4.0
65.1600 1.0
65.1800 4.0
65.2000 3.0
65.2200 3.0
65.2400 5.0
65.2600 1.0
65.2800 1.0
65.3000 5.0
65.3200 0.0
65.3400 4.0
65.3600 2.0
65.3800 0.0
65.4000 4.0
65.4200 3.0
65.4400 2.0
65.4600 6.0
65.4800 4.0
65.5000 0.0
65.5200 4.0
65.5400 1.0
65.5600 8.0
65.5800 0.0
65.6000 3.0
65.6200 3.0
65.6400 3.0
65.6600 1.0
65.6800 5.0
65.7000 6.0
65.7200 4.0
65.7400 6.0
65.7600 5.0
65.7800 5.0
65.8000 6.0
65.8200 6.0
65.8400 5.0
65.8600 3.0
65.8800 3.0
65.9000 2.0
65.9200 1.0
65.9400 1.0
65.9600 1.0
65.9800 3.0
66.0000 3.0
66.0200 1.0
66.0400 3.0
66.0600 3.0
66.0800 5.0
66.1000 2.0
66.1200 1.0
66.1400 3.0
66.1600 3.0
66.1800 1.0
66.2000 2.0
66.2200 4.0
66.2400 3.0
66.2600 5.0
66.2800 2.0
66.3000 3.0
66.3200 2.0
66.3400 6.0
66.3600 3.0
66.3800 6.0
66.4000 1.0
66.4200 6.0
66.4400 5.0
66.4600 5.0
66.4800 4.0
66.5000 4.0
66.5200 1.0
66.5400 2.0
66.5600 6.0
66.5800 5.0
66.6000 5.0
66.6200 7.0
66.6400 4.0
66.6600 5.0
66.6800 2.0
66.7000 3.0
66.7200 3.0
66.7400 3.0
66.7600 3.0
66.7800 2.0
66.8000 3.0
66.8200 3.0
66.8400 6.0
66.8600 7.0
66.8800 7.0
66.9000 3.0
66.9200 2.0
66.9400 1.0
66.9600 5.0
66.9800 1.0
67.0000 2.0
67.0200 2.0
67.0400 4.0
67.0600 3.0
67.0800 3.0
67.1000 5.0
67.1200 3.0
67.1400 4.0
67.1600 1.0
67.1800 6.0
67.2000 1.0
67.2200 9.0
67.2400 0.0
67.2600 3.0
67.2800 6.0
67.3000 5.0
67.3200 3.0
67.3400 5.0
67.3600 3.0
67.3800 2.0
67.4000 6.0
67.4200 0.0
67.4400 0.0
67.4600 3.0
67.4800 5.0
67.5000 2.0
67.5200 1.0
67.5400 2.0
67.5600 5.0
67.5800 5.0
67.6000 2.0
67.6200 10.0
67.6400 5.0
67.6600 1.0
67.6800 3.0
67.7000 5.0
67.7200 3.0
67.7400 4.0
67.7600 8.0
67.7800 3.0
67.8000 2.0
67.8200 4.0
67.8400 2.0
67.8600 4.0
67.8800 4.0
67.9000 3.0
67.9200 2.0
67.9400 3.0
67.9600 0.0
67.9800 2.0
68.0000 4.0
68.0200 9.0
68.0400 4.0
68.0600 3.0
68.0800 3.0
68.1000 3.0
68.1200 2.0
68.1400 4.0
68.1600 4.0
68.1800 1.0
68.2000 2.0
68.2200 3.0
68.2400 5.0
68.2600 3.0
68.2800 4.0
68.3000 7.0
68.3200 4.0
68.3400 3.0
68.3600 2.0
68.3800 3.0
68.4000 6.0
68.4200 2.0
68.4400 0.0
68.4600 1.0
68.4800 3.0
68.5000 1.0
68.5200 3.0
68.5400 0.0
68.5600 3.0
68.5800 4.0
68.6000 1.0
68.6200 2.0
68.6400 2.0
68.6600 2.0
68.6800 6.0
68.7000 3.0
68.7200 2.0
68.7400 2.0
68.7600 5.0
68.7800 3.0
68.8000 4.0
68.8200 1.0
68.8400 3.0
68.8600 6.0
68.8800 4.0
68.9000 2.0
68.9200 3.0
68.9400 3.0
68.9600 4.0
68.9800 3.0
69.0000 1.0
69.0200 2.0
69.0400 2.0
69.0600 3.0
69.0800 3.0
69.1000 1.0
69.1200 5.0
69.1400 2.0
69.1600 3.0
69.1800 4.0
69.2000 2.0
69.2200 5.0
69.2400 1.0
69.2600 2.0
69.2800 2.0
69.3000 4.0
69.3200 5.0
69.3400 4.0
69.3600 2.0
69.3800 3.0
69.4000 4.0
69.4200 2.0
69.4400 4.0
69.4600 3.0
69.4800 6.0
69.5000 5.0
69.5200 6.0
69.5400 2.0
69.5600 1.0
69.5800 2.0
69.6000 2.0
69.6200 1.0
69.6400 3.0
69.6600 4.0
69.6800 1.0
69.7000 5.0
69.7200 1.0
69.7400 3.0
69.7600 5.0
69.7800 4.0
69.8000 1.0
69.8200 2.0
69.8400 0.0
69.8600 0.0
69.8800 4.0
69.9000 3.0
69.9200 8.0
69.9400 5.0
69.9600 3.0
69.9800 3.0
70.0000 3.0
70.0200 2.0
70.0400 4.0
70.0600 5.0
70.0800 7.0
70.1000 1.0
70.1200 3.0
70.1400 1.0
70.1600 4.0
70.1800 4.0
70.2000 2.0
70.2200 3.0
70.2400 7.0
70.2600 6.0
70.2800 6.0
70.3000 5.0
70.3200 3.0
70.3400 0.0
70.3600 4.0
70.3800 1.0
70.4000 2.0
70.4200 0.0
70.4400 4.0
70.4600 4.0
70.4800 0.0
70.5000 6.0
70.5200 5.0
70.5400 5.0
70.5600 1.0
70.5800 2.0
70.6000 2.0
70.6200 2.0
70.6400 2.0
70.6600 1.0
70.6800 1.0
70.7000 1.0
70.7200 7.0
70.7400 4.0
70.7600 4.0
70.7800 4.0
70.8000 3.0
70.8200 1.0
70.8400 2.0
70.8600 3.0
70.8800 5.0
70.9000 1.0
70.9200 2.0
70.9400 3.0
70.9600 4.0
70.9800 1.0
71.0000 3.0
71.0200 2.0
71.0400 6.0
71.0600 3.0
71.0800 0.0
71.1000 4.0
71.1200 2.0
71.1400 1.0
71.1600 2.0
71.1800 4.0
71.2000 5.0
71.2200 7.0
71.2400 5.0
71.2600 2.0
71.2800 4.0
71.3000 2.0
71.3200 3.0
71.3400 4.0
71.3600 4.0
71.3800 3.0
71.4000 4.0
71.4200 4.0
71.4400 0.0
71.4600 1.0
71.4800 2.0
71.5000 5.0
71.5200 3.0
71.5400 1.0
71.5600 1.0
71.5800 4.0
71.6000 4.0
71.6200 2.0
71.6400 4.0
71.6600 4.0
71.6800 3.0
71.7000 6.0
71.7200 3.0
71.7400 6.0
71.7600 2.0
71.7800 3.0
71.8000 3.0
71.8200 3.0
71.8400 2.0
71.8600 6.0
71.8800 3.0
71.9000 3.0
71.9200 2.0
71.9400 4.0
71.9600 3.0
71.9800 1.0
72.0000 4.0
72.0200 0.0
72.0400 3.0
72.0600 3.0
72.0800 2.0
72.1000 1.0
72.1200 4.0
72.1400 1.0
72.1600 1.0
72.1800 4.0
72.2000 1.0
72.2200 3.0
72.2400 3.0
72.2600 1.0
72.2800 5.0
72.3000 5.0
72.3200 1.0
72.3400 1.0
72.3600 3.0
72.3800 5.0
72.4000 3.0
72.4200 1.0
72.4400 2.0
72.4600 3.0
72.4800 2.0
72.5000 7.0
72.5200 7.0
72.5400 2.0
72.5600 3.0
72.5800 4.0
72.6000 4.0
72.6200 2.0
72.6400 4.0
72.6600 7.0
72.6800 1.0
72.7000 4.0
72.7200 5.0
72.7400 2.0
72.7600 3.0
72.7800 4.0
72.8000 6.0
72.8200 3.0
72.8400 8.0
72.8600 0.0
72.8800 3.0
72.9000 0.0
72.9200 4.0
72.9400 3.0
72.9600 2.0
72.9800 1.0
73.0000 5.0
73.0200 1.0
73.0400 3.0
73.0600 1.0
73.0800 6.0
73.1000 4.0
73.1200 2.0
73.1400 2.0
73.1600 0.0
73.1800 4.0
73.2000 3.0
73.2200 3.0
73.2400 4.0
73.2600 2.0
73.2800 4.0
73.3000 5.0
73.3200 3.0
73.3400 2.0
73.3600 7.0
73.3800 2.0
73.4000 1.0
73.4200 4.0
73.4400 2.0
73.4600 2.0
73.4800 2.0
73.5000 1.0
73.5200 1.0
73.5400 4.0
73.5600 3.0
73.5800 4.0
73.6000 3.0
73.6200 3.0
73.6400 5.0
73.6600 1.0
73.6800 3.0
73.7000 6.0
73.7200 2.0
73.7400 3.0
73.7600 4.0
73.7800 3.0
73.8000 1.0
73.8200 2.0
73.8400 7.0
73.8600 3.0
73.8800 3.0
73.9000 1.0
73.9200 4.0
73.9400 7.0
73.9600 3.0
73.9800 2.0
74.0000 1.0
74.0200 2.0
74.0400 1.0
74.0600 2.0
74.0800 5.0
74.1000 3.0
74.1200 4.0
74.1400 4.0
74.1600 2.0
74.1800 3.0
74.2000 3.0
74.2200 0.0
74.2400 2.0
74.2600 7.0
74.2800 4.0
74.3000 8.0
74.3200 4.0
74.3400 2.0
74.3600 3.0
74.3800 1.0
74.4000 0.0
74.4200 1.0
74.4400 4.0
74.4600 4.0
74.4800 2.0
74.5000 4.0
74.5200 3.0
74.5400 6.0
74.5600 1.0
74.5800 3.0
74.6000 1.0
74.6200 2.0
74.6400 3.0
74.6600 3.0
74.6800 3.0
74.7000 3.0
74.7200 2.0
74.7400 1.0
74.7600 3.0
74.7800 0.0
74.8000 2.0
74.8200 1.0
74.8400 1.0
74.8600 0.0
74.8800 0.0
74.9000 2.0
74.9200 1.0
74.9400 4.0
74.9600 3.0
74.9800 0.0
